freq,fwhm,norm,fit_stat,redchi
1.0471285480508996,0.104713,0.0,246.29,1.5687261146496814
1.0587608285836607,0.105876,0.0,246.29,1.5687261146496814
1.070522329115862,0.107052,0.0,246.29,1.5687261146496814
1.0824144851190958,0.108241,0.0,246.29,1.5687261146496814
1.0944387480112365,0.109444,0.0,246.29,1.5687261146496814
1.1065965853335857,0.11066,0.0,246.29,1.5687261146496814
1.1188894809299823,0.111889,0.0,246.29,1.5687261146496814
1.1313189351279025,0.113132,0.0,246.29,1.5687261146496814
1.1438864649215728,0.114389,0.0,246.29,1.5687261146496814
1.1565936041571172,0.115659,0.0,246.29,1.5687261146496814
1.1694419037197599,0.116944,0.0,246.29,1.5687261146496814
1.1824329317231081,0.118243,0.0,246.29,1.5687261146496814
1.1955682737005384,0.119557,0.0,246.29,1.5687261146496814
1.2088495327987077,0.120885,0.0,246.29,1.5687261146496814
1.2222783299732152,0.122228,0.0,246.29,1.5687261146496814
1.2358563041864368,0.123586,0.0,246.29,1.5687261146496814
1.2495851126075586,0.124959,0.0,246.29,1.5687261146496814
1.2634664308148307,0.126347,0.0,246.29,1.5687261146496814
1.2775019530000689,0.12775,0.0,246.29,1.5687261146496814
1.2916933921754286,0.129169,0.0,246.29,1.5687261146496814
1.3060424803824748,0.130604,0.0,246.29,1.5687261146496814
1.3205509689035746,0.132055,0.0,246.29,1.5687261146496814
1.3352206284756383,0.133522,0.0,246.29,1.5687261146496814
1.3500532495062354,0.135005,0.0,246.29,1.5687261146496814
1.3650506422921107,0.136505,0.0,246.29,1.5687261146496814
1.3802146372401272,0.138021,0.0,246.29,1.5687261146496814
1.3955470850906657,0.139555,0.0,246.29,1.5687261146496814
1.4110498571435033,0.141105,0.0,246.29,1.5687261146496814
1.4267248454862032,0.142672,0.0,246.29,1.5687261146496814
1.4425739632250398,0.144257,0.0,246.29,1.5687261146496814
1.4585991447184923,0.14586,0.0,246.29,1.5687261146496814
1.474802345813327,0.14748,0.0,246.29,1.5687261146496814
1.491185544083308,0.149119,0.0,246.29,1.5687261146496814
1.5077507390705542,0.150775,0.0,246.29,1.5687261146496814
1.5244999525295826,0.15245,0.0,246.29,1.5687261146496814
1.5414352286740576,0.154144,0.0,246.29,1.5687261146496814
1.5585586344262863,0.155856,0.0,246.29,1.5687261146496814
1.5758722596694812,0.157587,0.0,246.29,1.5687261146496814
1.593378217502827,0.159338,0.0,246.29,1.5687261146496814
1.6110786444993823,0.161108,0.0,246.29,1.5687261146496814
1.6289757009668435,0.162898,0.0,246.29,1.5687261146496814
1.6470715712112072,0.164707,0.0,246.29,1.5687261146496814
1.6653684638033603,0.166537,0.0,246.29,1.5687261146496814
1.6838686118486341,0.168387,0.0,246.29,1.5687261146496814
1.70257427325935,0.170257,0.0,246.29,1.5687261146496814
1.7214877310303935,0.172149,0.0,246.29,1.5687261146496814
1.7406112935178513,0.174061,0.0,246.29,1.5687261146496814
1.7599472947207409,0.175995,0.0,246.29,1.5687261146496814
1.779498094565872,0.17795,0.0,246.29,1.5687261146496814
1.7992660791958721,0.179927,0.0,246.29,1.5687261146496814
1.81925366126041,0.181925,0.0,246.29,1.5687261146496814
1.839463280210657,0.183946,0.0,246.29,1.5687261146496814
1.8598974025970172,0.18599,0.0,246.29,1.5687261146496814
1.8805585223701655,0.188056,0.0,246.29,1.5687261146496814
1.901449161185431,0.190145,0.0,246.29,1.5687261146496814
1.9225718687105604,0.192257,0.0,246.29,1.5687261146496814
1.9439292229369007,0.194393,0.0,246.29,1.5687261146496814
1.9655238304940383,0.196552,0.0,246.29,1.5687261146496814
1.9873583269679354,0.218437,3.23293e-06,246.29,1.5687261146496814
2.0094353772225966,0.219964,4.75601e-05,246.26,1.5685350318471336
2.031757675725313,0.21645,8.62707e-05,246.2,1.568152866242038
2.0543279468755165,0.216052,0.000131694,246.07,1.5673248407643312
2.077148945337289,0.227629,0.000185192,245.81,1.5656687898089172
2.100223456375563,0.229687,0.000247031,245.41,1.5631210191082803
2.123554296196061,0.231551,0.000318447,244.85,1.5595541401273885
2.147144312289006,0.199065,0.000347181,244.15,1.555095541401274
2.1709963837766555,0.195743,0.000389271,243.43,1.5505095541401275
2.1951134217646913,0.197905,0.000404511,242.85,1.5468152866242038
2.219498369697517,0.23844,0.000486001,242.35,1.5436305732484077
2.244154203717499,0.244258,0.000555869,241.87,1.5405732484076433
2.269083933028201,0.24777,0.000559826,241.25,1.536624203821656
2.2942906002616517,0.25233,0.000621206,240.55,1.5321656050955414
2.3197772818496922,0.253346,0.000723037,239.68,1.5266242038216562
2.3455470883994516,0.257817,0.000791574,238.52,1.519235668789809
2.371603165072989,0.253014,0.000966322,237.19,1.510764331210191
2.397948691971156,0.232349,0.00104442,235.71,1.5013375796178345
2.424586884521724,0.26195,0.00120823,234.37,1.4928025477707008
2.45152099387182,0.269499,0.00137992,233.16,1.4850955414012739
2.478754307284725,0.272364,0.001547,231.97,1.4775159235668789
2.50629014854108,0.264876,0.00173515,230.76,1.4698089171974522
2.5341318783445423,0.278734,0.00185046,228.56,1.455796178343949
2.5622828947319634,0.2814,0.0019703,225.99,1.4394267515923567
2.5907466334881044,0.235152,0.00214392,222.52,1.4173248407643313
2.6195265685649725,0.235781,0.00230143,218.53,1.3919108280254777
2.648626212505812,0.238439,0.00252074,215.47,1.3724203821656051
2.678049116873801,0.241057,0.00260865,214.21,1.3643949044585988
2.7077988726855153,0.243727,0.00258691,214.45,1.3659235668789809
2.737879110849208,0.246446,0.00251052,215.71,1.3739490445859872
2.7682935026079525,0.249179,0.00240559,217.8,1.3872611464968154
2.7990457599877123,0.251993,0.00226433,220.9,1.4070063694267516
2.8301396362503914,0.254731,0.00200981,225.1,1.4337579617834395
2.8615789263519074,0.257571,0.00158665,229.86,1.4640764331210192
2.8933674674053647,0.260409,0.00121105,234.13,1.4912738853503185
2.9255091391493653,0.263304,0.00095808,237.28,1.5113375796178343
2.9580078644215257,0.266721,0.000769468,239.48,1.5253503184713375
2.9908676096372515,0.269544,0.00062733,241.05,1.5353503184713377
3.024092385273832,0.272667,0.000524402,242.27,1.5431210191082803
3.057686246359914,0.275276,0.000443279,243.32,1.5498089171974523
3.0916532929704084,0.278386,0.000334207,244.28,1.5559235668789808
3.1259976707269,0.281353,0.000178332,245.16,1.5615286624203821
3.1607235713036137,0.284643,6.37244e-05,245.9,1.5662420382165605
3.195835232938998,0.292362,2.04381e-05,246.22,1.56828025477707
3.2313369409529997,0.323134,0.0,246.29,1.5687261146496814
3.267233028270078,0.326723,0.0,246.29,1.5687261146496814
3.3035278759480278,0.330353,0.0,246.29,1.5687261146496814
3.3402259137126866,0.334023,0.0,246.29,1.5687261146496814
3.377331620498571,0.337733,0.0,246.29,1.5687261146496814
3.4148495249955215,0.341485,0.0,246.29,1.5687261146496814
3.452784206201428,0.345278,0.0,246.29,1.5687261146496814
3.4911402939810827,0.349114,0.0,246.29,1.5687261146496814
3.52992246963125,0.352992,0.0,246.29,1.5687261146496814
3.5691354664520105,0.356914,0.0,246.29,1.5687261146496814
3.608784070324455,0.360878,0.0,246.29,1.5687261146496814
3.6488731202947875,0.364887,0.0,246.29,1.5687261146496814
3.6894075091649277,0.368941,0.0,246.29,1.5687261146496814
3.73039218408967,0.373039,0.0,246.29,1.5687261146496814
3.771832147180468,0.377183,0.0,246.29,1.5687261146496814
3.8137324561159454,0.381373,0.0,246.29,1.5687261146496814
3.856098224759168,0.38561,0.0,246.29,1.5687261146496814
3.898934623781784,0.389893,0.0,246.29,1.5687261146496814
3.9422468812951004,0.394225,0.0,246.29,1.5687261146496814
3.9860402834881605,0.398604,0.0,246.29,1.5687261146496814
4.030320175272916,0.403032,0.0,246.29,1.5687261146496814
4.075091960936564,0.376891,1.89713e-05,246.24,1.568407643312102
4.120361104801134,0.387919,4.27861e-05,246.08,1.5673885350318473
4.166133131890395,0.379039,7.19969e-05,245.77,1.5654140127388536
4.21241362860418,0.380304,0.000102535,245.35,1.5627388535031848
4.259208243400194,0.385759,0.000137959,244.88,1.5597452229299362
4.3065226874833975,0.403191,0.000156218,244.46,1.5570700636942676
4.354362735503053,0.3937,0.000196112,244.02,1.554267515923567
4.402734226257512,0.482672,0.000255796,243.65,1.5519108280254776
4.451643063406824,0.488625,0.000271751,243.22,1.549171974522293
4.501095216193276,0.494902,0.000293864,242.73,1.5460509554140127
4.551096720169926,0.500402,0.00032273,242.15,1.5423566878980892
4.601653677937228,0.504459,0.000356028,241.53,1.538407643312102
4.652772259887852,0.509096,0.000369931,240.96,1.5347770700636942
4.704458704959767,0.516559,0.000404443,240.58,1.5323566878980892
4.756719321397685,0.523039,0.00039953,240.37,1.531019108280255
4.809560487522986,0.528221,0.00038156,240.34,1.5308280254777071
4.862988652512174,0.534845,0.00038406,240.44,1.5314649681528663
4.917010337183984,0.540569,0.000383206,240.51,1.5319108280254776
4.971632134795246,0.546597,0.000388517,240.32,1.5307006369426752
5.026860711845576,0.552695,0.000415232,239.67,1.5265605095541401
5.082702808891011,0.558998,0.000470223,238.42,1.5185987261146496
5.139165241366684,0.565259,0.000572964,236.59,1.5069426751592356
5.196254900418639,0.571584,0.000649581,234.21,1.491783439490446
5.2539787537448746,0.570198,0.000779845,231.84,1.476687898089172
5.312343846445754,0.581541,0.000836459,229.56,1.4621656050955414
5.371357301883837,0.575146,0.000883514,228.03,1.4524203821656052
5.431026322553275,0.596624,0.000928287,227.43,1.4485987261146498
5.491358190958871,0.603857,0.00094894,227.76,1.4507006369426751
5.5523602705048924,0.610747,0.000904913,228.72,1.456815286624204
5.614040006393758,0.607577,0.000920558,230.56,1.4685350318471337
5.676404926534721,0.620827,0.000776869,231.52,1.4746496815286625
5.739462642462633,0.631191,0.000685947,232.64,1.4817834394904457
5.803220850266918,0.638352,0.000681532,233.7,1.4885350318471338
5.867687331530871,0.645436,0.000653098,234.53,1.4938216560509554
5.932869954281387,0.652616,0.000628296,235.17,1.4978980891719744
5.9987766739492345,0.659864,0.000614885,235.59,1.5005732484076433
6.065415534340013,0.667191,0.000583975,235.72,1.5014012738853504
6.132794668615875,0.674492,0.000591426,235.81,1.5019745222929937
6.200922300288177,0.681433,0.000593279,235.81,1.5019745222929937
6.26980674422113,0.689674,0.000633377,235.77,1.50171974522293
6.33945640764663,0.697188,0.000641864,235.52,1.500127388535032
6.409879791190342,0.705087,0.000662361,235.21,1.4981528662420383
6.481085489909176,0.71045,0.000684114,235.06,1.4971974522292995
6.553082194340318,0.720761,0.000679827,235.07,1.4972611464968153
6.625878691561884,0.728835,0.00065165,235.38,1.499235668789809
6.699483866265369,0.73694,0.000546861,235.79,1.5018471337579617
6.773906701840011,0.745011,0.000501822,236.46,1.5061146496815287
6.849156281469203,0.752696,0.000458959,237.11,1.5102547770700638
6.925241789239067,0.761712,0.000455511,237.64,1.5136305732484077
7.0021725112593725,0.770198,0.000442746,237.92,1.5154140127388533
7.079957836796883,0.778767,0.00044711,238.07,1.5163694267515924
7.158607259421295,0.786808,0.000431749,238.15,1.5168789808917198
7.238130378163925,0.793605,0.000462809,238.37,1.5182802547770702
7.318536898689247,0.803314,0.000461208,238.64,1.52
7.399836634479451,0.813981,0.000475786,239.03,1.5224840764331211
7.482039508032168,0.822757,0.000489037,239.51,1.5255414012738853
7.565155552071494,0.832164,0.000442596,239.8,1.5273885350318472
7.649194910772461,0.8405,0.000393086,240.29,1.5305095541401272
7.734167840999122,0.846493,0.000346514,241.01,1.535095541401274
7.820084713556388,0.860071,0.000303528,241.86,1.5405095541401275
7.906956014455753,0.837022,0.000275978,242.77,1.5463057324840765
7.994792346195112,0.879394,0.000228021,243.39,1.5502547770700636
8.083604429052771,0.864414,0.000200455,243.95,1.5538216560509552
8.173403102395827,0.897676,0.000161306,244.31,1.5561146496815286
8.264199326003121,0.874314,0.000133508,244.67,1.558407643312102
8.356004181402835,0.915109,0.000110752,244.98,1.5603821656050956
8.448828873224988,0.914487,8.83595e-05,245.26,1.5621656050955413
8.542684730568942,0.782035,6.97607e-05,245.49,1.5636305732484077
8.637583208386094,0.785587,5.12788e-05,245.71,1.565031847133758
8.733535888877936,0.792225,4.04119e-05,245.97,1.5666878980891719
8.830554482909648,0.940103,2.83751e-05,246.18,1.5680254777070064
8.928650831439386,0.962121,7.76375e-06,246.27,1.5685987261146497
9.027836906963444,0.902784,0.0,246.29,1.5687261146496814
9.128124814977493,0.912812,0.0,246.29,1.5687261146496814
9.229526795454028,0.922953,0.0,246.29,1.5687261146496814
9.332055224336228,0.933206,0.0,246.29,1.5687261146496814
9.435722615048434,0.943572,0.0,246.29,1.5687261146496814
9.54054162002339,0.954054,0.0,246.29,1.5687261146496814
9.646525032246434,0.964653,0.0,246.29,1.5687261146496814
9.753685786816883,0.975369,0.0,246.29,1.5687261146496814
9.862036962526732,0.986204,0.0,246.29,1.5687261146496814
9.971591783456889,0.997159,0.0,246.29,1.5687261146496814
10.082363620591163,1.00824,0.0,246.29,1.5687261146496814
10.194365993448185,1.01944,0.0,246.29,1.5687261146496814
10.307612571731394,0.961546,7.18228e-06,246.28,1.5686624203821655
10.422117176997459,0.989368,1.20402e-05,246.25,1.5684713375796178
10.537893784343142,1.00091,1.87249e-05,246.19,1.5680891719745222
10.654956524110943,0.991225,2.36238e-05,246.11,1.567579617834395
10.7733196836137,0.97674,2.72109e-05,246.01,1.5669426751592357
10.892997708878294,0.986561,5.06914e-05,245.87,1.5660509554140127
11.014005206408806,0.995416,5.27412e-05,245.87,1.5660509554140127
11.13635694496919,1.00913,4.73012e-05,245.96,1.566624203821656
11.260067857385788,1.01549,3.22741e-05,246.11,1.567579617834395
11.38515304236985,1.07778,2.3993e-06,246.28,1.5686624203821655
11.511627766360313,1.15116,0.0,246.29,1.5687261146496814
11.639507465387025,1.16395,0.0,246.29,1.5687261146496814
11.768807746954717,1.17688,0.0,246.29,1.5687261146496814
11.899544391947854,1.18995,0.0,246.29,1.5687261146496814
12.031733356556671,1.20317,0.0,246.29,1.5687261146496814
12.165390774224598,1.21654,0.0,246.29,1.5687261146496814
12.300532957617323,1.23005,0.0,246.29,1.5687261146496814
12.437176400613707,1.24372,0.0,246.29,1.5687261146496814
12.575337780318868,1.25753,0.0,246.29,1.5687261146496814
12.715033959099575,1.2715,0.0,246.29,1.5687261146496814
12.856281986642266,1.28563,0.0,246.29,1.5687261146496814
12.999099102033945,1.29991,0.0,246.29,1.5687261146496814
13.143502735866187,1.31435,0.0,246.29,1.5687261146496814
13.289510512362487,1.32895,0.0,246.29,1.5687261146496814
13.4371402515293,1.34371,0.0,246.29,1.5687261146496814
13.58640997133093,1.35864,0.0,246.29,1.5687261146496814
13.73733788988859,1.37373,0.0,246.29,1.5687261146496814
13.88994242770389,1.38899,0.0,246.29,1.5687261146496814
14.044242209907045,1.40442,0.0,246.29,1.5687261146496814
14.200256068530011,1.42003,0.0,246.29,1.5687261146496814
14.35800304480494,1.4358,0.0,246.29,1.5687261146496814
14.517502391488105,1.45175,0.0,246.29,1.5687261146496814
14.678773575209679,1.46788,0.0,246.29,1.5687261146496814
14.841836278849597,1.48418,0.0,246.29,1.5687261146496814
15.00671040393983,1.50067,0.0,246.29,1.5687261146496814
15.173416073093307,1.51734,0.0,246.29,1.5687261146496814
15.341973632459885,1.5342,0.0,246.29,1.5687261146496814
15.512403654209539,1.55124,0.0,246.29,1.5687261146496814
15.684726939043165,1.56847,0.0,246.29,1.5687261146496814
15.858964518731268,1.5859,0.0,246.29,1.5687261146496814
16.03513765868087,1.60351,0.0,246.29,1.5687261146496814
16.213267860530888,1.62133,0.0,246.29,1.5687261146496814
16.393376864776396,1.63934,0.0,246.29,1.5687261146496814
16.57548665342203,1.65755,0.0,246.29,1.5687261146496814
16.75961945266481,1.67596,0.0,246.29,1.5687261146496814
16.945797735606863,1.69458,0.0,246.29,1.5687261146496814
17.13404422499819,1.7134,0.0,246.29,1.5687261146496814
17.324381896009932,1.73244,0.0,246.29,1.5687261146496814
17.5168339790385,1.75168,0.0,246.29,1.5687261146496814
17.711423962540767,1.77114,0.0,246.29,1.5687261146496814
17.908175595900808,1.79082,0.0,246.29,1.5687261146496814
18.10711289232847,1.81071,0.0,246.29,1.5687261146496814
18.308260131790135,1.83083,0.0,246.29,1.5687261146496814
18.511641863972084,1.85116,0.0,246.29,1.5687261146496814
18.71728291127668,1.87173,0.0,246.29,1.5687261146496814
18.92520837185198,1.89252,0.0,246.29,1.5687261146496814
19.135443622654865,1.91354,0.0,246.29,1.5687261146496814
19.34801432254828,1.9348,0.0,246.29,1.5687261146496814
19.562946415432855,1.95629,0.0,246.29,1.5687261146496814
19.780266133413306,1.97803,0.0,246.29,1.5687261146496814
20.000000000000004,2.0,0.0,246.29,1.5687261146496814
