freq,fwhm,norm,fit_stat,redchi
1.0471285480508996,0.0980737,2.41752e-06,479.88,1.9507317073170731
1.0587608285836607,0.0961042,2.9933e-06,479.88,1.9507317073170731
1.070522329115862,0.0985284,3.75737e-07,479.9,1.9508130081300812
1.0824144851190958,0.108241,0.0,479.9,1.9508130081300812
1.0944387480112365,0.109444,0.0,479.9,1.9508130081300812
1.1065965853335857,0.11066,0.0,479.9,1.9508130081300812
1.1188894809299823,0.111889,0.0,479.9,1.9508130081300812
1.1313189351279025,0.113132,0.0,479.9,1.9508130081300812
1.1438864649215728,0.114389,0.0,479.9,1.9508130081300812
1.1565936041571172,0.115659,0.0,479.9,1.9508130081300812
1.1694419037197599,0.116944,0.0,479.9,1.9508130081300812
1.1824329317231081,0.118243,0.0,479.9,1.9508130081300812
1.1955682737005384,0.119557,0.0,479.9,1.9508130081300812
1.2088495327987077,0.120885,0.0,479.9,1.9508130081300812
1.2222783299732152,0.122228,0.0,479.9,1.9508130081300812
1.2358563041864368,0.123586,0.0,479.9,1.9508130081300812
1.2495851126075586,0.124959,0.0,479.9,1.9508130081300812
1.2634664308148307,0.126347,0.0,479.9,1.9508130081300812
1.2775019530000689,0.12775,0.0,479.9,1.9508130081300812
1.2916933921754286,0.129169,0.0,479.9,1.9508130081300812
1.3060424803824748,0.130604,0.0,479.9,1.9508130081300812
1.3205509689035746,0.132055,0.0,479.9,1.9508130081300812
1.3352206284756383,0.133522,0.0,479.9,1.9508130081300812
1.3500532495062354,0.135005,0.0,479.9,1.9508130081300812
1.3650506422921107,0.136505,0.0,479.9,1.9508130081300812
1.3802146372401272,0.138021,0.0,479.9,1.9508130081300812
1.3955470850906657,0.139555,0.0,479.9,1.9508130081300812
1.4110498571435033,0.141105,0.0,479.9,1.9508130081300812
1.4267248454862032,0.142672,0.0,479.9,1.9508130081300812
1.4425739632250398,0.144257,0.0,479.9,1.9508130081300812
1.4585991447184923,0.14586,0.0,479.9,1.9508130081300812
1.474802345813327,0.14748,0.0,479.9,1.9508130081300812
1.491185544083308,0.149119,0.0,479.9,1.9508130081300812
1.5077507390705542,0.150775,0.0,479.9,1.9508130081300812
1.5244999525295826,0.163905,8.54567e-06,479.89,1.9507723577235772
1.5414352286740576,0.163359,2.15469e-05,479.87,1.950691056910569
1.5585586344262863,0.170676,3.4803e-05,479.8,1.9504065040650407
1.5758722596694812,0.170702,5.04146e-05,479.69,1.949959349593496
1.593378217502827,0.174861,6.99953e-05,479.48,1.9491056910569107
1.6110786444993823,0.176674,9.15937e-05,479.18,1.9478861788617887
1.6289757009668435,0.176807,0.000120403,478.82,1.9464227642276422
1.6470715712112072,0.181026,0.000142864,478.42,1.9447967479674797
1.6653684638033603,0.182732,0.000151897,478.0,1.943089430894309
1.6838686118486341,0.185003,0.000168815,477.5,1.9410569105691058
1.70257427325935,0.18724,0.000204453,476.87,1.9384959349593496
1.7214877310303935,0.189225,0.000218419,475.91,1.9345934959349596
1.7406112935178513,0.191123,0.00026927,474.71,1.9297154471544715
1.7599472947207409,0.192928,0.000327294,473.23,1.92369918699187
1.779498094565872,0.195378,0.00036502,471.37,1.916138211382114
1.7992660791958721,0.197439,0.000459861,469.25,1.907520325203252
1.81925366126041,0.20009,0.000574287,466.82,1.8976422764227643
1.839463280210657,0.202241,0.000721824,464.23,1.8871138211382115
1.8598974025970172,0.199308,0.000845274,461.35,1.8754065040650407
1.8805585223701655,0.205338,0.00099125,457.81,1.8610162601626017
1.901449161185431,0.206579,0.00113802,453.74,1.8444715447154472
1.9225718687105604,0.211482,0.0012048,448.11,1.8215853658536585
1.9439292229369007,0.213774,0.00142279,442.3,1.7979674796747969
1.9655238304940383,0.216179,0.00157727,435.21,1.7691463414634145
1.9873583269679354,0.198858,0.00177167,427.32,1.7370731707317073
2.0094353772225966,0.181237,0.0020466,418.09,1.6995528455284552
2.031757675725313,0.182863,0.00244617,408.74,1.6615447154471545
2.0543279468755165,0.184981,0.00292659,401.06,1.6303252032520326
2.077148945337289,0.186959,0.00331089,397.48,1.6157723577235774
2.100223456375563,0.18902,0.00337323,399.29,1.6231300813008132
2.123554296196061,0.191131,0.00306281,405.72,1.649268292682927
2.147144312289006,0.193289,0.00257596,414.85,1.6863821138211383
2.1709963837766555,0.19547,0.00207965,424.67,1.72630081300813
2.1951134217646913,0.197578,0.00165336,433.99,1.7641869918699187
2.219498369697517,0.200045,0.00129997,442.57,1.7990650406504065
2.244154203717499,0.22743,0.00105147,450.38,1.8308130081300813
2.269083933028201,0.249381,0.000898592,456.3,1.854878048780488
2.2942906002616517,0.252258,0.00071453,460.84,1.8733333333333333
2.3197772818496922,0.255085,0.00057847,464.19,1.8869512195121951
2.3455470883994516,0.257927,0.000504943,466.59,1.8967073170731705
2.371603165072989,0.260876,0.000484831,468.3,1.903658536585366
2.397948691971156,0.263773,0.000459052,469.35,1.9079268292682927
2.424586884521724,0.266704,0.000449676,469.98,1.910487804878049
2.45152099387182,0.269667,0.000445453,470.33,1.911910569105691
2.478754307284725,0.272635,0.000439501,470.52,1.9126829268292682
2.50629014854108,0.27561,0.000439017,470.61,1.913048780487805
2.5341318783445423,0.278409,0.000450546,470.71,1.9134552845528454
2.5622828947319634,0.281838,0.000440122,470.91,1.9142682926829269
2.5907466334881044,0.284977,0.000394024,471.45,1.9164634146341464
2.6195265685649725,0.263421,0.000352912,472.39,1.9202845528455283
2.648626212505812,0.256152,0.000304648,473.58,1.9251219512195121
2.678049116873801,0.260133,0.000251726,474.85,1.9302845528455286
2.7077988726855153,0.297144,0.000214117,476.02,1.935040650406504
2.737879110849208,0.298109,0.000168345,477.0,1.9390243902439024
2.7682935026079525,0.304179,0.000131642,477.74,1.9420325203252033
2.7990457599877123,0.307391,0.000116802,478.32,1.944390243902439
2.8301396362503914,0.309679,9.47871e-05,478.75,1.9461382113821137
2.8615789263519074,0.314592,8.26842e-05,479.07,1.947439024390244
2.8933674674053647,0.318184,7.43451e-05,479.34,1.9485365853658536
2.9255091391493653,0.313193,5.6111e-05,479.55,1.949390243902439
2.9580078644215257,0.268739,3.68685e-05,479.72,1.9500813008130082
2.9908676096372515,0.278069,1.94101e-05,479.84,1.9505691056910568
3.024092385273832,0.281747,3.8933e-06,479.89,1.9507723577235772
3.057686246359914,0.305769,0.0,479.9,1.9508130081300812
3.0916532929704084,0.309165,0.0,479.9,1.9508130081300812
3.1259976707269,0.3126,0.0,479.9,1.9508130081300812
3.1607235713036137,0.316072,0.0,479.9,1.9508130081300812
3.195835232938998,0.319584,0.0,479.9,1.9508130081300812
3.2313369409529997,0.323134,0.0,479.9,1.9508130081300812
3.267233028270078,0.326723,0.0,479.9,1.9508130081300812
3.3035278759480278,0.330353,0.0,479.9,1.9508130081300812
3.3402259137126866,0.334023,0.0,479.9,1.9508130081300812
3.377331620498571,0.337733,0.0,479.9,1.9508130081300812
3.4148495249955215,0.341485,0.0,479.9,1.9508130081300812
3.452784206201428,0.345278,0.0,479.9,1.9508130081300812
3.4911402939810827,0.349114,0.0,479.9,1.9508130081300812
3.52992246963125,0.352992,0.0,479.9,1.9508130081300812
3.5691354664520105,0.356914,0.0,479.9,1.9508130081300812
3.608784070324455,0.360878,0.0,479.9,1.9508130081300812
3.6488731202947875,0.364887,0.0,479.9,1.9508130081300812
3.6894075091649277,0.368941,0.0,479.9,1.9508130081300812
3.73039218408967,0.373039,0.0,479.9,1.9508130081300812
3.771832147180468,0.340373,3.18139e-05,479.65,1.9497967479674796
3.8137324561159454,0.343236,0.000118243,477.2,1.9398373983739836
3.856098224759168,0.347049,0.000217247,473.04,1.9229268292682928
3.898934623781784,0.350904,0.00031679,468.09,1.9028048780487803
3.9422468812951004,0.354987,0.000385129,462.47,1.879959349593496
3.9860402834881605,0.358746,0.000524946,454.72,1.8484552845528457
4.030320175272916,0.362777,0.000650477,446.14,1.8135772357723576
4.075091960936564,0.366783,0.000749629,438.13,1.7810162601626016
4.120361104801134,0.371007,0.000825426,431.56,1.754308943089431
4.166133131890395,0.375011,0.00088503,426.74,1.7347154471544717
4.21241362860418,0.379278,0.000924534,424.07,1.7238617886178862
4.259208243400194,0.383482,0.000927631,424.17,1.724268292682927
4.3065226874833975,0.388354,0.000894762,427.6,1.7382113821138212
4.354362735503053,0.465171,0.000843182,432.84,1.7595121951219512
4.402734226257512,0.484174,0.000799835,437.6,1.7788617886178864
4.451643063406824,0.489669,0.000711347,441.78,1.7958536585365852
4.501095216193276,0.495009,0.000619278,445.45,1.8107723577235773
4.551096720169926,0.500617,0.000562575,448.96,1.825040650406504
4.601653677937228,0.50615,0.000517169,452.33,1.8387398373983739
4.652772259887852,0.511796,0.000458104,455.33,1.8509349593495934
4.704458704959767,0.517486,0.000438732,457.82,1.8610569105691057
4.756719321397685,0.52305,0.00039399,459.36,1.8673170731707318
4.809560487522986,0.527257,0.000399353,460.35,1.8713414634146341
4.862988652512174,0.532357,0.000389784,460.89,1.8735365853658537
4.917010337183984,0.520806,0.000386911,461.98,1.8779674796747967
4.971632134795246,0.546175,0.000334655,462.91,1.8817479674796749
5.026860711845576,0.552922,0.000305671,464.76,1.8892682926829267
5.082702808891011,0.558964,0.000279097,466.65,1.896951219512195
5.139165241366684,0.565282,0.000256436,468.15,1.9030487804878047
5.196254900418639,0.571469,0.000237141,469.16,1.9071544715447155
5.2539787537448746,0.577303,0.000221332,469.93,1.9102845528455286
5.312343846445754,0.583042,0.000205538,470.85,1.9140243902439025
5.371357301883837,0.483625,0.000168262,472.02,1.918780487804878
5.431026322553275,0.491852,0.000136972,473.76,1.9258536585365853
5.491358190958871,0.597644,0.000131564,475.67,1.9336178861788618
5.5523602705048924,0.610321,9.9328e-05,477.26,1.940081300813008
5.614040006393758,0.61685,7.1791e-05,478.42,1.9447967479674797
5.676404926534721,0.62391,5.62978e-05,479.14,1.9477235772357724
5.739462642462633,0.631008,3.00302e-05,479.41,1.9488211382113823
5.803220850266918,0.638175,2.46827e-05,479.47,1.9490650406504066
5.867687331530871,0.645159,4.58095e-05,479.43,1.9489024390243903
5.932869954281387,0.65256,4.69131e-05,479.05,1.947357723577236
5.9987766739492345,0.659586,5.08701e-05,478.56,1.9453658536585365
6.065415534340013,0.663806,6.14458e-05,478.0,1.943089430894309
6.132794668615875,0.672762,7.82837e-05,477.44,1.9408130081300814
6.200922300288177,0.663756,8.68003e-05,476.83,1.9383333333333332
6.26980674422113,0.689613,9.67312e-05,476.19,1.9357317073170732
6.33945640764663,0.591392,0.000101256,475.53,1.9330487804878047
6.409879791190342,0.577076,0.000101793,474.81,1.9301219512195122
6.481085489909176,0.584043,9.62636e-05,474.52,1.9289430894308943
6.553082194340318,0.593411,0.000110514,474.54,1.9290243902439026
6.625878691561884,0.597416,0.000104398,475.32,1.9321951219512195
6.699483866265369,0.627777,9.17828e-05,476.27,1.9360569105691057
6.773906701840011,0.725742,9.00928e-05,477.05,1.9392276422764227
6.849156281469203,0.731193,8.15744e-05,477.71,1.941910569105691
6.925241789239067,0.759194,6.67216e-05,478.24,1.9440650406504065
7.0021725112593725,0.770052,5.78291e-05,478.67,1.9458130081300813
7.079957836796883,0.777686,4.86666e-05,479.01,1.9471951219512196
7.158607259421295,0.66054,3.71177e-05,479.25,1.9481707317073171
7.238130378163925,0.652163,3.02471e-05,479.4,1.948780487804878
7.318536898689247,0.660216,1.89232e-05,479.6,1.9495934959349595
7.399836634479451,0.671327,1.27398e-05,479.79,1.9503658536585367
7.482039508032168,0.748204,0.0,479.9,1.9508130081300812
7.565155552071494,0.756516,0.0,479.9,1.9508130081300812
7.649194910772461,0.764919,0.0,479.9,1.9508130081300812
7.734167840999122,0.773417,0.0,479.9,1.9508130081300812
7.820084713556388,0.782008,0.0,479.9,1.9508130081300812
7.906956014455753,0.790696,0.0,479.9,1.9508130081300812
7.994792346195112,0.799479,0.0,479.9,1.9508130081300812
8.083604429052771,0.80836,0.0,479.9,1.9508130081300812
8.173403102395827,0.81734,0.0,479.9,1.9508130081300812
8.264199326003121,0.82642,0.0,479.9,1.9508130081300812
8.356004181402835,0.8356,0.0,479.9,1.9508130081300812
8.448828873224988,0.844883,0.0,479.9,1.9508130081300812
8.542684730568942,0.854268,0.0,479.9,1.9508130081300812
8.637583208386094,0.863758,0.0,479.9,1.9508130081300812
8.733535888877936,0.873354,0.0,479.9,1.9508130081300812
8.830554482909648,0.883055,0.0,479.9,1.9508130081300812
8.928650831439386,0.892865,0.0,479.9,1.9508130081300812
9.027836906963444,0.902784,0.0,479.9,1.9508130081300812
9.128124814977493,0.912812,0.0,479.9,1.9508130081300812
9.229526795454028,0.922953,0.0,479.9,1.9508130081300812
9.332055224336228,0.933206,0.0,479.9,1.9508130081300812
9.435722615048434,0.943572,0.0,479.9,1.9508130081300812
9.54054162002339,0.954054,0.0,479.9,1.9508130081300812
9.646525032246434,0.964653,0.0,479.9,1.9508130081300812
9.753685786816883,0.975369,0.0,479.9,1.9508130081300812
9.862036962526732,0.986204,0.0,479.9,1.9508130081300812
9.971591783456889,0.997159,0.0,479.9,1.9508130081300812
10.082363620591163,1.00824,0.0,479.9,1.9508130081300812
10.194365993448185,1.01944,0.0,479.9,1.9508130081300812
10.307612571731394,1.03076,0.0,479.9,1.9508130081300812
10.422117176997459,1.04221,0.0,479.9,1.9508130081300812
10.537893784343142,1.05379,0.0,479.9,1.9508130081300812
10.654956524110943,1.0655,0.0,479.9,1.9508130081300812
10.7733196836137,1.07733,0.0,479.9,1.9508130081300812
10.892997708878294,1.0893,0.0,479.9,1.9508130081300812
11.014005206408806,1.1014,0.0,479.9,1.9508130081300812
11.13635694496919,1.11364,0.0,479.9,1.9508130081300812
11.260067857385788,1.12601,0.0,479.9,1.9508130081300812
11.38515304236985,1.13852,0.0,479.9,1.9508130081300812
11.511627766360313,1.15116,0.0,479.9,1.9508130081300812
11.639507465387025,1.16395,0.0,479.9,1.9508130081300812
11.768807746954717,1.17688,0.0,479.9,1.9508130081300812
11.899544391947854,1.18995,0.0,479.9,1.9508130081300812
12.031733356556671,1.20317,0.0,479.9,1.9508130081300812
12.165390774224598,1.21654,0.0,479.9,1.9508130081300812
12.300532957617323,1.23005,0.0,479.9,1.9508130081300812
12.437176400613707,1.24372,0.0,479.9,1.9508130081300812
12.575337780318868,1.25753,0.0,479.9,1.9508130081300812
12.715033959099575,1.2715,0.0,479.9,1.9508130081300812
12.856281986642266,1.28563,0.0,479.9,1.9508130081300812
12.999099102033945,1.29991,0.0,479.9,1.9508130081300812
13.143502735866187,1.31435,0.0,479.9,1.9508130081300812
13.289510512362487,1.32895,0.0,479.9,1.9508130081300812
13.4371402515293,1.34371,0.0,479.9,1.9508130081300812
13.58640997133093,1.35864,0.0,479.9,1.9508130081300812
13.73733788988859,1.37373,0.0,479.9,1.9508130081300812
13.88994242770389,1.38899,0.0,479.9,1.9508130081300812
14.044242209907045,1.40442,0.0,479.9,1.9508130081300812
14.200256068530011,1.42003,0.0,479.9,1.9508130081300812
14.35800304480494,1.4358,0.0,479.9,1.9508130081300812
14.517502391488105,1.45175,0.0,479.9,1.9508130081300812
14.678773575209679,1.46788,0.0,479.9,1.9508130081300812
14.841836278849597,1.48418,0.0,479.9,1.9508130081300812
15.00671040393983,1.50067,0.0,479.9,1.9508130081300812
15.173416073093307,1.51734,0.0,479.9,1.9508130081300812
15.341973632459885,1.5342,0.0,479.9,1.9508130081300812
15.512403654209539,1.55124,0.0,479.9,1.9508130081300812
15.684726939043165,1.56847,0.0,479.9,1.9508130081300812
15.858964518731268,1.5859,0.0,479.9,1.9508130081300812
16.03513765868087,1.60351,0.0,479.9,1.9508130081300812
16.213267860530888,1.62133,0.0,479.9,1.9508130081300812
16.393376864776396,1.63934,0.0,479.9,1.9508130081300812
16.57548665342203,1.65755,0.0,479.9,1.9508130081300812
16.75961945266481,1.67596,0.0,479.9,1.9508130081300812
16.945797735606863,1.69458,0.0,479.9,1.9508130081300812
17.13404422499819,1.7134,0.0,479.9,1.9508130081300812
17.324381896009932,1.73244,0.0,479.9,1.9508130081300812
17.5168339790385,1.75168,0.0,479.9,1.9508130081300812
17.711423962540767,1.77114,0.0,479.9,1.9508130081300812
17.908175595900808,1.79082,0.0,479.9,1.9508130081300812
18.10711289232847,1.81071,0.0,479.9,1.9508130081300812
18.308260131790135,1.83083,0.0,479.9,1.9508130081300812
18.511641863972084,1.85116,0.0,479.9,1.9508130081300812
18.71728291127668,1.87173,0.0,479.9,1.9508130081300812
18.92520837185198,1.89252,0.0,479.9,1.9508130081300812
19.135443622654865,1.91354,0.0,479.9,1.9508130081300812
19.34801432254828,1.9348,0.0,479.9,1.9508130081300812
19.562946415432855,1.95629,0.0,479.9,1.9508130081300812
19.780266133413306,1.97803,0.0,479.9,1.9508130081300812
20.000000000000004,2.0,0.0,479.9,1.9508130081300812
