freq,fwhm,norm,fit_stat,redchi
1.0471285480508996,0.104713,0.0,955.25,3.883130081300813
1.0587608285836607,0.105876,0.0,955.25,3.883130081300813
1.070522329115862,0.107052,0.0,955.25,3.883130081300813
1.0824144851190958,0.108241,0.0,955.25,3.883130081300813
1.0944387480112365,0.109444,0.0,955.25,3.883130081300813
1.1065965853335857,0.11066,0.0,955.25,3.883130081300813
1.1188894809299823,0.111889,0.0,955.25,3.883130081300813
1.1313189351279025,0.113132,0.0,955.25,3.883130081300813
1.1438864649215728,0.114389,0.0,955.25,3.883130081300813
1.1565936041571172,0.115659,0.0,955.25,3.883130081300813
1.1694419037197599,0.116944,0.0,955.25,3.883130081300813
1.1824329317231081,0.118243,0.0,955.25,3.883130081300813
1.1955682737005384,0.119557,0.0,955.25,3.883130081300813
1.2088495327987077,0.120885,0.0,955.25,3.883130081300813
1.2222783299732152,0.122228,0.0,955.25,3.883130081300813
1.2358563041864368,0.123586,0.0,955.25,3.883130081300813
1.2495851126075586,0.124959,0.0,955.25,3.883130081300813
1.2634664308148307,0.126347,0.0,955.25,3.883130081300813
1.2775019530000689,0.12775,0.0,955.25,3.883130081300813
1.2916933921754286,0.129169,0.0,955.25,3.883130081300813
1.3060424803824748,0.130604,0.0,955.25,3.883130081300813
1.3205509689035746,0.132055,0.0,955.25,3.883130081300813
1.3352206284756383,0.133522,0.0,955.25,3.883130081300813
1.3500532495062354,0.135005,0.0,955.25,3.883130081300813
1.3650506422921107,0.136505,0.0,955.25,3.883130081300813
1.3802146372401272,0.138021,0.0,955.25,3.883130081300813
1.3955470850906657,0.139555,0.0,955.25,3.883130081300813
1.4110498571435033,0.141105,0.0,955.25,3.883130081300813
1.4267248454862032,0.142672,0.0,955.25,3.883130081300813
1.4425739632250398,0.144257,0.0,955.25,3.883130081300813
1.4585991447184923,0.14586,0.0,955.25,3.883130081300813
1.474802345813327,0.14748,0.0,955.25,3.883130081300813
1.491185544083308,0.149119,0.0,955.25,3.883130081300813
1.5077507390705542,0.150775,0.0,955.25,3.883130081300813
1.5244999525295826,0.15245,0.0,955.25,3.883130081300813
1.5414352286740576,0.154144,0.0,955.25,3.883130081300813
1.5585586344262863,0.155856,0.0,955.25,3.883130081300813
1.5758722596694812,0.157587,0.0,955.25,3.883130081300813
1.593378217502827,0.159338,0.0,955.25,3.883130081300813
1.6110786444993823,0.161108,0.0,955.25,3.883130081300813
1.6289757009668435,0.162898,0.0,955.25,3.883130081300813
1.6470715712112072,0.164707,0.0,955.25,3.883130081300813
1.6653684638033603,0.166537,0.0,955.25,3.883130081300813
1.6838686118486341,0.168387,0.0,955.25,3.883130081300813
1.70257427325935,0.170257,0.0,955.25,3.883130081300813
1.7214877310303935,0.172149,0.0,955.25,3.883130081300813
1.7406112935178513,0.174061,0.0,955.25,3.883130081300813
1.7599472947207409,0.175995,0.0,955.25,3.883130081300813
1.779498094565872,0.17795,0.0,955.25,3.883130081300813
1.7992660791958721,0.179927,0.0,955.25,3.883130081300813
1.81925366126041,0.181925,0.0,955.25,3.883130081300813
1.839463280210657,0.183946,0.0,955.25,3.883130081300813
1.8598974025970172,0.18599,0.0,955.25,3.883130081300813
1.8805585223701655,0.188056,0.0,955.25,3.883130081300813
1.901449161185431,0.190145,0.0,955.25,3.883130081300813
1.9225718687105604,0.192257,0.0,955.25,3.883130081300813
1.9439292229369007,0.194393,0.0,955.25,3.883130081300813
1.9655238304940383,0.196552,0.0,955.25,3.883130081300813
1.9873583269679354,0.198736,0.0,955.25,3.883130081300813
2.0094353772225966,0.200944,0.0,955.25,3.883130081300813
2.031757675725313,0.203176,0.0,955.25,3.883130081300813
2.0543279468755165,0.205433,0.0,955.25,3.883130081300813
2.077148945337289,0.207715,0.0,955.25,3.883130081300813
2.100223456375563,0.210022,0.0,955.25,3.883130081300813
2.123554296196061,0.212355,0.0,955.25,3.883130081300813
2.147144312289006,0.214714,0.0,955.25,3.883130081300813
2.1709963837766555,0.2171,0.0,955.25,3.883130081300813
2.1951134217646913,0.219511,0.0,955.25,3.883130081300813
2.219498369697517,0.22195,0.0,955.25,3.883130081300813
2.244154203717499,0.224415,0.0,955.25,3.883130081300813
2.269083933028201,0.226908,0.0,955.25,3.883130081300813
2.2942906002616517,0.206502,3.43796e-05,954.92,3.881788617886179
2.3197772818496922,0.208786,0.000104496,952.51,3.8719918699186993
2.3455470883994516,0.211376,0.000186728,947.76,3.852682926829268
2.371603165072989,0.213463,0.000278211,940.76,3.8242276422764228
2.397948691971156,0.215871,0.000454769,930.02,3.7805691056910566
2.424586884521724,0.218213,0.000683272,916.55,3.725813008130081
2.45152099387182,0.220643,0.000958432,900.31,3.6597967479674796
2.478754307284725,0.22309,0.0013112,879.81,3.576463414634146
2.50629014854108,0.225579,0.00178958,854.46,3.4734146341463417
2.5341318783445423,0.228075,0.00232468,827.8,3.365040650406504
2.5622828947319634,0.230608,0.00264492,804.1,3.2686991869918702
2.5907466334881044,0.233169,0.00264447,788.31,3.204512195121951
2.6195265685649725,0.235758,0.00240296,784.69,3.18979674796748
2.648626212505812,0.238383,0.00202785,792.95,3.2233739837398376
2.678049116873801,0.241044,0.00161744,809.6,3.2910569105691057
2.7077988726855153,0.243727,0.00129463,828.96,3.369756097560976
2.737879110849208,0.246415,0.00110951,846.28,3.440162601626016
2.7682935026079525,0.257942,0.000978009,861.09,3.5003658536585367
2.7990457599877123,0.265446,0.000855941,873.78,3.551951219512195
2.8301396362503914,0.280451,0.000760905,886.15,3.6022357723577234
2.8615789263519074,0.314607,0.000709042,897.91,3.650040650406504
2.8933674674053647,0.31827,0.000623099,908.21,3.691910569105691
2.9255091391493653,0.321708,0.000522037,916.48,3.725528455284553
2.9580078644215257,0.325377,0.000467918,923.27,3.753130081300813
2.9908676096372515,0.328978,0.00040795,928.88,3.7759349593495934
3.024092385273832,0.332627,0.000357882,933.72,3.7956097560975612
3.057686246359914,0.336345,0.000318846,937.78,3.8121138211382113
3.0916532929704084,0.339938,0.000271074,941.02,3.8252845528455284
3.1259976707269,0.343536,0.000235678,943.87,3.836869918699187
3.1607235713036137,0.347662,0.000207924,946.58,3.847886178861789
3.195835232938998,0.351145,0.000162516,949.09,3.8580894308943092
3.2313369409529997,0.354597,0.00012174,951.24,3.866829268292683
3.267233028270078,0.358504,9.70806e-05,952.89,3.8735365853658537
3.3035278759480278,0.362853,6.48346e-05,953.98,3.8779674796747967
3.3402259137126866,0.366497,4.35315e-05,954.7,3.8808943089430894
3.377331620498571,0.370478,2.57041e-05,955.11,3.8825609756097563
3.4148495249955215,0.341485,0.0,955.25,3.883130081300813
3.452784206201428,0.345278,0.0,955.25,3.883130081300813
3.4911402939810827,0.349114,0.0,955.25,3.883130081300813
3.52992246963125,0.352992,0.0,955.25,3.883130081300813
3.5691354664520105,0.356914,0.0,955.25,3.883130081300813
3.608784070324455,0.360878,0.0,955.25,3.883130081300813
3.6488731202947875,0.364887,0.0,955.25,3.883130081300813
3.6894075091649277,0.368941,0.0,955.25,3.883130081300813
3.73039218408967,0.373039,0.0,955.25,3.883130081300813
3.771832147180468,0.377183,0.0,955.25,3.883130081300813
3.8137324561159454,0.381373,0.0,955.25,3.883130081300813
3.856098224759168,0.38561,0.0,955.25,3.883130081300813
3.898934623781784,0.389893,0.0,955.25,3.883130081300813
3.9422468812951004,0.394225,0.0,955.25,3.883130081300813
3.9860402834881605,0.398604,0.0,955.25,3.883130081300813
4.030320175272916,0.403032,0.0,955.25,3.883130081300813
4.075091960936564,0.407509,0.0,955.25,3.883130081300813
4.120361104801134,0.453025,6.44397e-06,955.2,3.882926829268293
4.166133131890395,0.457608,1.75744e-05,955.04,3.8822764227642277
4.21241362860418,0.462685,4.22201e-05,954.73,3.8810162601626015
4.259208243400194,0.46827,5.95175e-05,954.14,3.8786178861788616
4.3065226874833975,0.473466,7.99878e-05,953.19,3.874756097560976
4.354362735503053,0.478571,0.000103132,951.82,3.869186991869919
4.402734226257512,0.483956,0.000126539,950.0,3.861788617886179
4.451643063406824,0.489676,0.000151089,947.74,3.85260162601626
4.501095216193276,0.494983,0.000174292,945.02,3.8415447154471543
4.551096720169926,0.500565,0.000200803,941.64,3.8278048780487803
4.601653677937228,0.506182,0.00024419,937.36,3.810406504065041
4.652772259887852,0.511805,0.000289608,931.44,3.7863414634146344
4.704458704959767,0.517412,0.000338386,923.2,3.7528455284552846
4.756719321397685,0.523229,0.000431207,912.24,3.7082926829268295
4.809560487522986,0.518573,0.000579225,899.27,3.6555691056910566
4.862988652512174,0.534719,0.000654783,881.31,3.582560975609756
4.917010337183984,0.510493,0.00073859,863.18,3.508861788617886
4.971632134795246,0.480423,0.000825914,845.73,3.4379268292682927
5.026860711845576,0.487326,0.000893902,831.96,3.3819512195121955
5.082702808891011,0.503475,0.000931685,823.2,3.3463414634146345
5.139165241366684,0.519293,0.000939848,819.41,3.330934959349593
5.196254900418639,0.51967,0.000913831,820.31,3.3345934959349592
5.2539787537448746,0.521874,0.000860308,826.09,3.3580894308943092
5.312343846445754,0.561381,0.000797989,836.25,3.399390243902439
5.371357301883837,0.590771,0.00074384,848.18,3.4478861788617885
5.431026322553275,0.597338,0.000688121,860.47,3.4978455284552847
5.491358190958871,0.604032,0.000628081,872.18,3.5454471544715447
5.5523602705048924,0.61075,0.000569404,883.61,3.591910569105691
5.614040006393758,0.617544,0.000485646,894.54,3.636341463414634
5.676404926534721,0.624391,0.000432737,905.82,3.68219512195122
5.739462642462633,0.631333,0.000356702,915.86,3.723008130081301
5.803220850266918,0.638354,0.000302054,924.46,3.757967479674797
5.867687331530871,0.645302,0.000250029,930.9,3.7841463414634147
5.932869954281387,0.652597,0.0002187,935.4,3.8024390243902437
5.9987766739492345,0.659847,0.000196751,938.22,3.8139024390243903
6.065415534340013,0.667193,0.000182814,939.78,3.8202439024390245
6.132794668615875,0.674607,0.000182551,940.65,3.823780487804878
6.200922300288177,0.681941,0.000167443,941.14,3.825772357723577
6.26980674422113,0.689495,0.000164576,942.01,3.8293089430894307
6.33945640764663,0.696956,0.000154702,943.56,3.835609756097561
6.409879791190342,0.70464,0.000140638,945.82,3.84479674796748
6.481085489909176,0.705697,0.000116485,948.36,3.855121951219512
6.553082194340318,0.720836,9.10591e-05,950.53,3.863943089430894
6.625878691561884,0.72837,7.46689e-05,952.14,3.870487804878049
6.699483866265369,0.73682,6.29298e-05,953.1,3.874390243902439
6.773906701840011,0.744938,5.54155e-05,953.62,3.8765040650406504
6.849156281469203,0.752927,4.99123e-05,953.88,3.877560975609756
6.925241789239067,0.761434,4.58225e-05,954.07,3.8783333333333334
7.0021725112593725,0.77018,4.29737e-05,954.26,3.8791056910569104
7.079957836796883,0.778765,4.07411e-05,954.42,3.8797560975609753
7.158607259421295,0.787258,4.0052e-05,954.5,3.880081300813008
7.238130378163925,0.796152,4.11048e-05,954.4,3.8796747967479672
7.318536898689247,0.804398,4.51977e-05,954.09,3.8784146341463415
7.399836634479451,0.813241,4.99496e-05,953.52,3.8760975609756096
7.482039508032168,0.822421,5.67325e-05,952.74,3.872926829268293
7.565155552071494,0.718582,6.01039e-05,951.88,3.8694308943089433
7.649194910772461,0.688429,6.48865e-05,950.92,3.8655284552845526
7.734167840999122,0.696095,6.67591e-05,950.53,3.863943089430894
7.820084713556388,0.704506,6.52185e-05,950.76,3.8648780487804877
7.906956014455753,0.746087,6.06265e-05,951.39,3.8674390243902437
7.994792346195112,0.832221,6.22064e-05,951.99,3.869878048780488
8.083604429052771,0.850538,5.67116e-05,952.53,3.8720731707317073
8.173403102395827,0.768893,4.68055e-05,953.06,3.8742276422764226
8.264199326003121,0.772669,4.007e-05,953.63,3.8765447154471544
8.356004181402835,0.915509,3.99512e-05,954.22,3.8789430894308943
8.448828873224988,0.924824,2.96728e-05,954.67,3.880772357723577
8.542684730568942,0.939251,1.99895e-05,954.98,3.8820325203252035
8.637583208386094,0.949868,1.33919e-05,955.17,3.8828048780487805
8.733535888877936,0.926631,2.38973e-06,955.24,3.883089430894309
8.830554482909648,0.883055,0.0,955.25,3.883130081300813
8.928650831439386,0.892865,0.0,955.25,3.883130081300813
9.027836906963444,0.902784,0.0,955.25,3.883130081300813
9.128124814977493,0.912812,0.0,955.25,3.883130081300813
9.229526795454028,0.979946,4.44855e-07,955.25,3.883130081300813
9.332055224336228,1.00225,7.03343e-06,955.23,3.883048780487805
9.435722615048434,1.02303,1.0111e-05,955.15,3.8827235772357724
9.54054162002339,0.869737,1.341e-05,955.01,3.8821544715447156
9.646525032246434,0.872165,1.68073e-05,954.8,3.8813008130081297
9.753685786816883,0.878632,2.00719e-05,954.58,3.8804065040650406
9.862036962526732,0.888163,2.16649e-05,954.41,3.8797154471544713
9.971591783456889,0.89756,2.19223e-05,954.34,3.879430894308943
10.082363620591163,0.907415,2.02666e-05,954.41,3.8797154471544713
10.194365993448185,0.920505,2.17422e-05,954.57,3.8803658536585366
10.307612571731394,0.9333,1.61152e-05,954.85,3.8815040650406507
10.422117176997459,0.938706,9.18351e-06,955.09,3.8824796747967483
10.537893784343142,0.951196,5.62186e-07,955.24,3.883089430894309
10.654956524110943,1.0655,0.0,955.25,3.883130081300813
10.7733196836137,1.07733,0.0,955.25,3.883130081300813
10.892997708878294,1.0893,0.0,955.25,3.883130081300813
11.014005206408806,1.1014,0.0,955.25,3.883130081300813
11.13635694496919,1.11364,0.0,955.25,3.883130081300813
11.260067857385788,1.12601,0.0,955.25,3.883130081300813
11.38515304236985,1.13852,0.0,955.25,3.883130081300813
11.511627766360313,1.15116,0.0,955.25,3.883130081300813
11.639507465387025,1.16395,0.0,955.25,3.883130081300813
11.768807746954717,1.17688,0.0,955.25,3.883130081300813
11.899544391947854,1.18995,0.0,955.25,3.883130081300813
12.031733356556671,1.20317,0.0,955.25,3.883130081300813
12.165390774224598,1.21654,0.0,955.25,3.883130081300813
12.300532957617323,1.23005,0.0,955.25,3.883130081300813
12.437176400613707,1.24372,0.0,955.25,3.883130081300813
12.575337780318868,1.25753,0.0,955.25,3.883130081300813
12.715033959099575,1.2715,0.0,955.25,3.883130081300813
12.856281986642266,1.28563,0.0,955.25,3.883130081300813
12.999099102033945,1.29991,0.0,955.25,3.883130081300813
13.143502735866187,1.31435,0.0,955.25,3.883130081300813
13.289510512362487,1.32895,0.0,955.25,3.883130081300813
13.4371402515293,1.34371,0.0,955.25,3.883130081300813
13.58640997133093,1.35864,0.0,955.25,3.883130081300813
13.73733788988859,1.37373,0.0,955.25,3.883130081300813
13.88994242770389,1.38899,0.0,955.25,3.883130081300813
14.044242209907045,1.40442,0.0,955.25,3.883130081300813
14.200256068530011,1.42003,0.0,955.25,3.883130081300813
14.35800304480494,1.4358,0.0,955.25,3.883130081300813
14.517502391488105,1.45175,0.0,955.25,3.883130081300813
14.678773575209679,1.46788,0.0,955.25,3.883130081300813
14.841836278849597,1.48418,0.0,955.25,3.883130081300813
15.00671040393983,1.50067,0.0,955.25,3.883130081300813
15.173416073093307,1.51734,0.0,955.25,3.883130081300813
15.341973632459885,1.5342,0.0,955.25,3.883130081300813
15.512403654209539,1.55124,0.0,955.25,3.883130081300813
15.684726939043165,1.56847,0.0,955.25,3.883130081300813
15.858964518731268,1.5859,0.0,955.25,3.883130081300813
16.03513765868087,1.60351,0.0,955.25,3.883130081300813
16.213267860530888,1.62133,0.0,955.25,3.883130081300813
16.393376864776396,1.63934,0.0,955.25,3.883130081300813
16.57548665342203,1.65755,0.0,955.25,3.883130081300813
16.75961945266481,1.67596,0.0,955.25,3.883130081300813
16.945797735606863,1.69458,0.0,955.25,3.883130081300813
17.13404422499819,1.7134,0.0,955.25,3.883130081300813
17.324381896009932,1.73244,0.0,955.25,3.883130081300813
17.5168339790385,1.75168,0.0,955.25,3.883130081300813
17.711423962540767,1.77114,0.0,955.25,3.883130081300813
17.908175595900808,1.79082,0.0,955.25,3.883130081300813
18.10711289232847,1.81071,0.0,955.25,3.883130081300813
18.308260131790135,1.83083,0.0,955.25,3.883130081300813
18.511641863972084,1.85116,0.0,955.25,3.883130081300813
18.71728291127668,1.87173,0.0,955.25,3.883130081300813
18.92520837185198,1.89252,0.0,955.25,3.883130081300813
19.135443622654865,1.91354,0.0,955.25,3.883130081300813
19.34801432254828,1.9348,0.0,955.25,3.883130081300813
19.562946415432855,1.95629,0.0,955.25,3.883130081300813
19.780266133413306,1.97803,0.0,955.25,3.883130081300813
20.000000000000004,2.0,0.0,955.25,3.883130081300813
