freq,fwhm,norm,fit_stat,redchi
1.0471285480508996,0.115121,4.79608e-05,1392.31,5.659796747967479
1.0587608285836607,0.116006,3.63369e-05,1392.93,5.662317073170732
1.070522329115862,0.117647,2.52722e-05,1393.35,5.6640243902439025
1.0824144851190958,0.118779,7.11099e-06,1393.57,5.664918699186992
1.0944387480112365,0.109444,0.0,1393.63,5.665162601626017
1.1065965853335857,0.11066,0.0,1393.63,5.665162601626017
1.1188894809299823,0.111889,0.0,1393.63,5.665162601626017
1.1313189351279025,0.113132,0.0,1393.63,5.665162601626017
1.1438864649215728,0.114389,0.0,1393.63,5.665162601626017
1.1565936041571172,0.115659,0.0,1393.63,5.665162601626017
1.1694419037197599,0.116944,0.0,1393.63,5.665162601626017
1.1824329317231081,0.118243,0.0,1393.63,5.665162601626017
1.1955682737005384,0.119557,0.0,1393.63,5.665162601626017
1.2088495327987077,0.120885,0.0,1393.63,5.665162601626017
1.2222783299732152,0.122228,0.0,1393.63,5.665162601626017
1.2358563041864368,0.123586,0.0,1393.63,5.665162601626017
1.2495851126075586,0.124959,0.0,1393.63,5.665162601626017
1.2634664308148307,0.126347,0.0,1393.63,5.665162601626017
1.2775019530000689,0.12775,0.0,1393.63,5.665162601626017
1.2916933921754286,0.129169,0.0,1393.63,5.665162601626017
1.3060424803824748,0.130604,0.0,1393.63,5.665162601626017
1.3205509689035746,0.132055,0.0,1393.63,5.665162601626017
1.3352206284756383,0.133522,0.0,1393.63,5.665162601626017
1.3500532495062354,0.135005,0.0,1393.63,5.665162601626017
1.3650506422921107,0.136505,0.0,1393.63,5.665162601626017
1.3802146372401272,0.138021,0.0,1393.63,5.665162601626017
1.3955470850906657,0.139555,0.0,1393.63,5.665162601626017
1.4110498571435033,0.141105,0.0,1393.63,5.665162601626017
1.4267248454862032,0.142672,0.0,1393.63,5.665162601626017
1.4425739632250398,0.144257,0.0,1393.63,5.665162601626017
1.4585991447184923,0.14586,0.0,1393.63,5.665162601626017
1.474802345813327,0.14748,0.0,1393.63,5.665162601626017
1.491185544083308,0.149119,0.0,1393.63,5.665162601626017
1.5077507390705542,0.150775,0.0,1393.63,5.665162601626017
1.5244999525295826,0.15245,0.0,1393.63,5.665162601626017
1.5414352286740576,0.154144,0.0,1393.63,5.665162601626017
1.5585586344262863,0.155856,0.0,1393.63,5.665162601626017
1.5758722596694812,0.157587,0.0,1393.63,5.665162601626017
1.593378217502827,0.159338,0.0,1393.63,5.665162601626017
1.6110786444993823,0.161108,0.0,1393.63,5.665162601626017
1.6289757009668435,0.162898,0.0,1393.63,5.665162601626017
1.6470715712112072,0.164707,0.0,1393.63,5.665162601626017
1.6653684638033603,0.166537,0.0,1393.63,5.665162601626017
1.6838686118486341,0.168387,0.0,1393.63,5.665162601626017
1.70257427325935,0.170257,0.0,1393.63,5.665162601626017
1.7214877310303935,0.172149,0.0,1393.63,5.665162601626017
1.7406112935178513,0.174061,0.0,1393.63,5.665162601626017
1.7599472947207409,0.175995,0.0,1393.63,5.665162601626017
1.779498094565872,0.17795,0.0,1393.63,5.665162601626017
1.7992660791958721,0.179927,0.0,1393.63,5.665162601626017
1.81925366126041,0.181925,0.0,1393.63,5.665162601626017
1.839463280210657,0.183946,0.0,1393.63,5.665162601626017
1.8598974025970172,0.18599,0.0,1393.63,5.665162601626017
1.8805585223701655,0.188056,0.0,1393.63,5.665162601626017
1.901449161185431,0.190145,0.0,1393.63,5.665162601626017
1.9225718687105604,0.192257,0.0,1393.63,5.665162601626017
1.9439292229369007,0.194393,0.0,1393.63,5.665162601626017
1.9655238304940383,0.196552,0.0,1393.63,5.665162601626017
1.9873583269679354,0.198736,0.0,1393.63,5.665162601626017
2.0094353772225966,0.200944,0.0,1393.63,5.665162601626017
2.031757675725313,0.203176,0.0,1393.63,5.665162601626017
2.0543279468755165,0.205433,0.0,1393.63,5.665162601626017
2.077148945337289,0.207715,0.0,1393.63,5.665162601626017
2.100223456375563,0.210022,0.0,1393.63,5.665162601626017
2.123554296196061,0.212355,0.0,1393.63,5.665162601626017
2.147144312289006,0.214714,0.0,1393.63,5.665162601626017
2.1709963837766555,0.2171,0.0,1393.63,5.665162601626017
2.1951134217646913,0.219511,0.0,1393.63,5.665162601626017
2.219498369697517,0.22195,0.0,1393.63,5.665162601626017
2.244154203717499,0.224415,0.0,1393.63,5.665162601626017
2.269083933028201,0.226908,0.0,1393.63,5.665162601626017
2.2942906002616517,0.229429,0.0,1393.63,5.665162601626017
2.3197772818496922,0.231978,0.0,1393.63,5.665162601626017
2.3455470883994516,0.234555,0.0,1393.63,5.665162601626017
2.371603165072989,0.23716,0.0,1393.63,5.665162601626017
2.397948691971156,0.239795,0.0,1393.63,5.665162601626017
2.424586884521724,0.242459,0.0,1393.63,5.665162601626017
2.45152099387182,0.245152,0.0,1393.63,5.665162601626017
2.478754307284725,0.247875,0.0,1393.63,5.665162601626017
2.50629014854108,0.250629,0.0,1393.63,5.665162601626017
2.5341318783445423,0.253413,0.0,1393.63,5.665162601626017
2.5622828947319634,0.256228,0.0,1393.63,5.665162601626017
2.5907466334881044,0.259075,0.0,1393.63,5.665162601626017
2.6195265685649725,0.261953,0.0,1393.63,5.665162601626017
2.648626212505812,0.264863,0.0,1393.63,5.665162601626017
2.678049116873801,0.267805,0.0,1393.63,5.665162601626017
2.7077988726855153,0.254007,5.70827e-06,1393.56,5.664878048780488
2.737879110849208,0.273191,1.53315e-05,1393.36,5.6640650406504065
2.7682935026079525,0.301042,2.65293e-05,1392.98,5.6625203252032525
2.7990457599877123,0.307385,4.00518e-05,1392.34,5.659918699186991
2.8301396362503914,0.31083,5.41991e-05,1391.22,5.6553658536585365
2.8615789263519074,0.31457,8.2701e-05,1389.3,5.647560975609756
2.8933674674053647,0.313555,0.000119632,1386.04,5.63430894308943
2.9255091391493653,0.263826,0.000150726,1380.5,5.611788617886178
2.9580078644215257,0.266231,0.000214746,1372.21,5.578089430894309
2.9908676096372515,0.269182,0.000292213,1361.42,5.534227642276423
3.024092385273832,0.27226,0.000376366,1348.91,5.483373983739837
3.057686246359914,0.275232,0.000478302,1335.25,5.4278455284552845
3.0916532929704084,0.278321,0.000617973,1320.36,5.367317073170732
3.1259976707269,0.281425,0.000802051,1302.37,5.2941869918699185
3.1607235713036137,0.284466,0.00105162,1277.43,5.192804878048781
3.195835232938998,0.287633,0.00143325,1242.84,5.052195121951219
3.2313369409529997,0.290825,0.00190867,1200.38,4.87959349593496
3.267233028270078,0.294052,0.00229141,1153.68,4.689756097560976
3.3035278759480278,0.297318,0.00254509,1110.12,4.512682926829267
3.3402259137126866,0.300629,0.00273163,1076.26,4.375040650406504
3.377331620498571,0.303966,0.00286687,1056.29,4.293861788617886
3.4148495249955215,0.307337,0.00284516,1054.44,4.286341463414634
3.452784206201428,0.310769,0.00253436,1069.05,4.345731707317073
3.4911402939810827,0.31423,0.00208065,1095.22,4.452113821138211
3.52992246963125,0.317723,0.00173346,1123.89,4.5686585365853665
3.5691354664520105,0.329202,0.00149006,1147.79,4.6658130081300815
3.608784070324455,0.325012,0.00129108,1167.46,4.7457723577235775
3.6488731202947875,0.328451,0.00111213,1188.47,4.831178861788618
3.6894075091649277,0.33214,0.000946728,1215.29,4.9402032520325205
3.73039218408967,0.352638,0.000804113,1244.75,5.059959349593496
3.771832147180468,0.414887,0.000703189,1268.38,5.156016260162602
3.8137324561159454,0.419461,0.000630733,1287.32,5.2330081300813
3.856098224759168,0.424167,0.000526987,1300.93,5.288333333333334
3.898934623781784,0.428842,0.000490124,1312.69,5.336138211382114
3.9422468812951004,0.43362,0.000421071,1321.92,5.373658536585366
3.9860402834881605,0.438427,0.00035629,1331.63,5.413130081300814
4.030320175272916,0.443332,0.000321361,1342.12,5.455772357723577
4.075091960936564,0.44821,0.000257454,1351.56,5.494146341463415
4.120361104801134,0.453216,0.000221175,1359.93,5.528170731707317
4.166133131890395,0.458257,0.00019417,1366.63,5.555406504065041
4.21241362860418,0.463245,0.000164351,1371.57,5.5754878048780485
4.259208243400194,0.463702,0.000160792,1375.72,5.592357723577236
4.3065226874833975,0.473717,0.000137683,1378.53,5.603780487804878
4.354362735503053,0.478957,0.0001185,1381.32,5.615121951219512
4.402734226257512,0.484286,0.000107672,1384.04,5.626178861788618
4.451643063406824,0.489539,8.34123e-05,1386.17,5.634837398373984
4.501095216193276,0.494844,6.52271e-05,1388.04,5.642439024390244
4.551096720169926,0.500173,5.32734e-05,1389.55,5.648577235772358
4.601653677937228,0.505724,4.5048e-05,1390.76,5.653495934959349
4.652772259887852,0.508033,3.46537e-05,1391.75,5.657520325203252
4.704458704959767,0.426249,2.17175e-05,1392.58,5.660894308943089
4.756719321397685,0.428891,1.31616e-05,1393.23,5.663536585365854
4.809560487522986,0.528433,3.05798e-06,1393.61,5.665081300813008
4.862988652512174,0.486299,0.0,1393.63,5.665162601626017
4.917010337183984,0.491701,0.0,1393.63,5.665162601626017
4.971632134795246,0.497163,0.0,1393.63,5.665162601626017
5.026860711845576,0.502686,0.0,1393.63,5.665162601626017
5.082702808891011,0.50827,0.0,1393.63,5.665162601626017
5.139165241366684,0.513917,0.0,1393.63,5.665162601626017
5.196254900418639,0.519625,0.0,1393.63,5.665162601626017
5.2539787537448746,0.525398,0.0,1393.63,5.665162601626017
5.312343846445754,0.531234,0.0,1393.63,5.665162601626017
5.371357301883837,0.537136,0.0,1393.63,5.665162601626017
5.431026322553275,0.543103,0.0,1393.63,5.665162601626017
5.491358190958871,0.603582,3.7197e-06,1393.58,5.664959349593496
5.5523602705048924,0.610533,1.17326e-05,1393.3,5.663821138211382
5.614040006393758,0.617503,3.0035e-05,1392.8,5.661788617886178
5.676404926534721,0.624367,4.21308e-05,1391.69,5.657276422764228
5.739462642462633,0.631335,5.71107e-05,1389.68,5.649105691056911
5.803220850266918,0.638292,7.43332e-05,1386.4,5.635772357723577
5.867687331530871,0.645218,9.55029e-05,1381.59,5.616219512195122
5.932869954281387,0.652616,0.000125901,1375.08,5.589756097560976
5.9987766739492345,0.659837,0.000150278,1366.36,5.55430894308943
6.065415534340013,0.667196,0.000192372,1355.55,5.510365853658536
6.132794668615875,0.674605,0.000233838,1342.02,5.455365853658536
6.200922300288177,0.682101,0.000287228,1325.27,5.387276422764227
6.26980674422113,0.689645,0.000341748,1303.86,5.300243902439024
6.33945640764663,0.697336,0.000449538,1276.66,5.189674796747968
6.409879791190342,0.705049,0.000546698,1242.28,5.049918699186992
6.481085489909176,0.656228,0.000641059,1202.01,4.8862195121951215
6.553082194340318,0.598732,0.000745883,1157.71,4.706138211382114
6.625878691561884,0.596484,0.000832936,1117.11,4.54109756097561
6.699483866265369,0.602954,0.000882786,1088.42,4.4244715447154475
6.773906701840011,0.609869,0.000887215,1077.39,4.379634146341464
6.849156281469203,0.640841,0.000857683,1085.59,4.412967479674797
6.925241789239067,0.742453,0.000816466,1104.39,4.48939024390244
7.0021725112593725,0.770223,0.000776617,1126.25,4.578252032520325
7.079957836796883,0.778787,0.000734803,1150.06,4.675040650406504
7.158607259421295,0.787447,0.000648462,1171.28,4.76130081300813
7.238130378163925,0.796153,0.000570071,1192.23,4.8464634146341465
7.318536898689247,0.805026,0.000520734,1212.61,4.92930894308943
7.399836634479451,0.813974,0.000474317,1231.75,5.007113821138211
7.482039508032168,0.823019,0.000429265,1250.01,5.081341463414634
7.565155552071494,0.832167,0.000390294,1268.04,5.154634146341463
7.649194910772461,0.841396,0.000348219,1285.48,5.225528455284553
7.734167840999122,0.850758,0.000309407,1301.34,5.29
7.820084713556388,0.860183,0.000267918,1314.56,5.343739837398374
7.906956014455753,0.869724,0.000241261,1325.15,5.386788617886179
7.994792346195112,0.879307,0.000219446,1333.32,5.42
8.083604429052771,0.889165,0.000201243,1339.65,5.445731707317074
8.173403102395827,0.89907,0.000192461,1345.02,5.467560975609756
8.264199326003121,0.908998,0.000178936,1349.86,5.487235772357723
8.356004181402835,0.917315,0.000172186,1354.87,5.5076016260162595
8.448828873224988,0.927746,0.000154558,1359.77,5.527520325203252
8.542684730568942,0.939695,0.000141527,1365.18,5.5495121951219515
8.637583208386094,0.950134,0.000123913,1370.94,5.572926829268293
8.733535888877936,0.960688,0.000106941,1376.74,5.596504065040651
8.830554482909648,0.97136,8.39122e-05,1381.83,5.6171951219512195
8.928650831439386,0.982085,6.74201e-05,1385.97,5.634024390243902
9.027836906963444,0.992971,4.93156e-05,1389.0,5.646341463414634
9.128124814977493,1.00386,3.61959e-05,1391.14,5.655040650406504
9.229526795454028,1.01342,2.53758e-05,1392.51,5.660609756097561
9.332055224336228,1.02618,1.66856e-05,1393.28,5.663739837398374
9.435722615048434,1.03718,3.44522e-06,1393.57,5.664918699186992
9.54054162002339,0.954054,0.0,1393.63,5.665162601626017
9.646525032246434,0.964653,0.0,1393.63,5.665162601626017
9.753685786816883,0.975369,0.0,1393.63,5.665162601626017
9.862036962526732,0.986204,0.0,1393.63,5.665162601626017
9.971591783456889,0.997159,0.0,1393.63,5.665162601626017
10.082363620591163,1.00824,0.0,1393.63,5.665162601626017
10.194365993448185,1.01944,0.0,1393.63,5.665162601626017
10.307612571731394,1.03076,0.0,1393.63,5.665162601626017
10.422117176997459,1.04221,0.0,1393.63,5.665162601626017
10.537893784343142,1.05379,0.0,1393.63,5.665162601626017
10.654956524110943,1.0655,0.0,1393.63,5.665162601626017
10.7733196836137,1.07733,0.0,1393.63,5.665162601626017
10.892997708878294,1.0893,0.0,1393.63,5.665162601626017
11.014005206408806,1.1014,0.0,1393.63,5.665162601626017
11.13635694496919,1.11364,0.0,1393.63,5.665162601626017
11.260067857385788,1.12601,0.0,1393.63,5.665162601626017
11.38515304236985,1.13852,0.0,1393.63,5.665162601626017
11.511627766360313,1.15116,0.0,1393.63,5.665162601626017
11.639507465387025,1.16395,0.0,1393.63,5.665162601626017
11.768807746954717,1.17688,0.0,1393.63,5.665162601626017
11.899544391947854,1.18995,0.0,1393.63,5.665162601626017
12.031733356556671,1.20317,0.0,1393.63,5.665162601626017
12.165390774224598,1.21654,0.0,1393.63,5.665162601626017
12.300532957617323,1.23005,0.0,1393.63,5.665162601626017
12.437176400613707,1.24372,0.0,1393.63,5.665162601626017
12.575337780318868,1.25753,0.0,1393.63,5.665162601626017
12.715033959099575,1.2715,0.0,1393.63,5.665162601626017
12.856281986642266,1.28563,0.0,1393.63,5.665162601626017
12.999099102033945,1.29991,0.0,1393.63,5.665162601626017
13.143502735866187,1.31435,0.0,1393.63,5.665162601626017
13.289510512362487,1.32895,0.0,1393.63,5.665162601626017
13.4371402515293,1.34371,0.0,1393.63,5.665162601626017
13.58640997133093,1.35864,0.0,1393.63,5.665162601626017
13.73733788988859,1.37373,0.0,1393.63,5.665162601626017
13.88994242770389,1.38899,0.0,1393.63,5.665162601626017
14.044242209907045,1.40442,0.0,1393.63,5.665162601626017
14.200256068530011,1.42003,0.0,1393.63,5.665162601626017
14.35800304480494,1.4358,0.0,1393.63,5.665162601626017
14.517502391488105,1.45175,0.0,1393.63,5.665162601626017
14.678773575209679,1.46788,0.0,1393.63,5.665162601626017
14.841836278849597,1.48418,0.0,1393.63,5.665162601626017
15.00671040393983,1.50067,0.0,1393.63,5.665162601626017
15.173416073093307,1.51734,0.0,1393.63,5.665162601626017
15.341973632459885,1.5342,0.0,1393.63,5.665162601626017
15.512403654209539,1.55124,0.0,1393.63,5.665162601626017
15.684726939043165,1.56847,0.0,1393.63,5.665162601626017
15.858964518731268,1.5859,0.0,1393.63,5.665162601626017
16.03513765868087,1.60351,0.0,1393.63,5.665162601626017
16.213267860530888,1.62133,0.0,1393.63,5.665162601626017
16.393376864776396,1.63934,0.0,1393.63,5.665162601626017
16.57548665342203,1.65755,0.0,1393.63,5.665162601626017
16.75961945266481,1.67596,0.0,1393.63,5.665162601626017
16.945797735606863,1.69458,0.0,1393.63,5.665162601626017
17.13404422499819,1.7134,0.0,1393.63,5.665162601626017
17.324381896009932,1.73244,0.0,1393.63,5.665162601626017
17.5168339790385,1.75168,0.0,1393.63,5.665162601626017
17.711423962540767,1.77114,0.0,1393.63,5.665162601626017
17.908175595900808,1.79082,0.0,1393.63,5.665162601626017
18.10711289232847,1.81071,0.0,1393.63,5.665162601626017
18.308260131790135,1.83083,0.0,1393.63,5.665162601626017
18.511641863972084,1.85116,0.0,1393.63,5.665162601626017
18.71728291127668,1.87173,0.0,1393.63,5.665162601626017
18.92520837185198,1.89252,0.0,1393.63,5.665162601626017
19.135443622654865,1.91354,0.0,1393.63,5.665162601626017
19.34801432254828,1.9348,0.0,1393.63,5.665162601626017
19.562946415432855,1.95629,0.0,1393.63,5.665162601626017
19.780266133413306,1.97803,0.0,1393.63,5.665162601626017
20.000000000000004,2.0,0.0,1393.63,5.665162601626017
