freq,fwhm,norm,fit_stat,redchi
1.0471285480508996,0.104713,0.0,811.61,3.299227642276423
1.0587608285836607,0.105876,0.0,811.61,3.299227642276423
1.070522329115862,0.107052,0.0,811.61,3.299227642276423
1.0824144851190958,0.108241,0.0,811.61,3.299227642276423
1.0944387480112365,0.109444,0.0,811.61,3.299227642276423
1.1065965853335857,0.11066,0.0,811.61,3.299227642276423
1.1188894809299823,0.111889,0.0,811.61,3.299227642276423
1.1313189351279025,0.113132,0.0,811.61,3.299227642276423
1.1438864649215728,0.114389,0.0,811.61,3.299227642276423
1.1565936041571172,0.115659,0.0,811.61,3.299227642276423
1.1694419037197599,0.116944,0.0,811.61,3.299227642276423
1.1824329317231081,0.118243,0.0,811.61,3.299227642276423
1.1955682737005384,0.119557,0.0,811.61,3.299227642276423
1.2088495327987077,0.120885,0.0,811.61,3.299227642276423
1.2222783299732152,0.122228,0.0,811.61,3.299227642276423
1.2358563041864368,0.123586,0.0,811.61,3.299227642276423
1.2495851126075586,0.124959,0.0,811.61,3.299227642276423
1.2634664308148307,0.126347,0.0,811.61,3.299227642276423
1.2775019530000689,0.12775,0.0,811.61,3.299227642276423
1.2916933921754286,0.129169,0.0,811.61,3.299227642276423
1.3060424803824748,0.130604,0.0,811.61,3.299227642276423
1.3205509689035746,0.132055,0.0,811.61,3.299227642276423
1.3352206284756383,0.133522,0.0,811.61,3.299227642276423
1.3500532495062354,0.135005,0.0,811.61,3.299227642276423
1.3650506422921107,0.136505,0.0,811.61,3.299227642276423
1.3802146372401272,0.138021,0.0,811.61,3.299227642276423
1.3955470850906657,0.139555,0.0,811.61,3.299227642276423
1.4110498571435033,0.141105,0.0,811.61,3.299227642276423
1.4267248454862032,0.142672,0.0,811.61,3.299227642276423
1.4425739632250398,0.144257,0.0,811.61,3.299227642276423
1.4585991447184923,0.14586,0.0,811.61,3.299227642276423
1.474802345813327,0.14748,0.0,811.61,3.299227642276423
1.491185544083308,0.149119,0.0,811.61,3.299227642276423
1.5077507390705542,0.150775,0.0,811.61,3.299227642276423
1.5244999525295826,0.15245,0.0,811.61,3.299227642276423
1.5414352286740576,0.154144,0.0,811.61,3.299227642276423
1.5585586344262863,0.155856,0.0,811.61,3.299227642276423
1.5758722596694812,0.157587,0.0,811.61,3.299227642276423
1.593378217502827,0.159338,0.0,811.61,3.299227642276423
1.6110786444993823,0.161108,0.0,811.61,3.299227642276423
1.6289757009668435,0.162898,0.0,811.61,3.299227642276423
1.6470715712112072,0.164707,0.0,811.61,3.299227642276423
1.6653684638033603,0.166537,0.0,811.61,3.299227642276423
1.6838686118486341,0.168387,0.0,811.61,3.299227642276423
1.70257427325935,0.170257,0.0,811.61,3.299227642276423
1.7214877310303935,0.172149,0.0,811.61,3.299227642276423
1.7406112935178513,0.174061,0.0,811.61,3.299227642276423
1.7599472947207409,0.175995,0.0,811.61,3.299227642276423
1.779498094565872,0.17795,0.0,811.61,3.299227642276423
1.7992660791958721,0.179927,0.0,811.61,3.299227642276423
1.81925366126041,0.181925,0.0,811.61,3.299227642276423
1.839463280210657,0.183946,0.0,811.61,3.299227642276423
1.8598974025970172,0.18599,0.0,811.61,3.299227642276423
1.8805585223701655,0.188056,0.0,811.61,3.299227642276423
1.901449161185431,0.190145,0.0,811.61,3.299227642276423
1.9225718687105604,0.192257,0.0,811.61,3.299227642276423
1.9439292229369007,0.194393,0.0,811.61,3.299227642276423
1.9655238304940383,0.196552,0.0,811.61,3.299227642276423
1.9873583269679354,0.198736,0.0,811.61,3.299227642276423
2.0094353772225966,0.200944,0.0,811.61,3.299227642276423
2.031757675725313,0.203176,0.0,811.61,3.299227642276423
2.0543279468755165,0.205433,0.0,811.61,3.299227642276423
2.077148945337289,0.207715,0.0,811.61,3.299227642276423
2.100223456375563,0.210022,0.0,811.61,3.299227642276423
2.123554296196061,0.212355,0.0,811.61,3.299227642276423
2.147144312289006,0.214714,0.0,811.61,3.299227642276423
2.1709963837766555,0.2171,0.0,811.61,3.299227642276423
2.1951134217646913,0.219511,0.0,811.61,3.299227642276423
2.219498369697517,0.22195,0.0,811.61,3.299227642276423
2.244154203717499,0.224415,0.0,811.61,3.299227642276423
2.269083933028201,0.226908,0.0,811.61,3.299227642276423
2.2942906002616517,0.229429,0.0,811.61,3.299227642276423
2.3197772818496922,0.231978,0.0,811.61,3.299227642276423
2.3455470883994516,0.234555,0.0,811.61,3.299227642276423
2.371603165072989,0.23716,0.0,811.61,3.299227642276423
2.397948691971156,0.239795,0.0,811.61,3.299227642276423
2.424586884521724,0.242459,0.0,811.61,3.299227642276423
2.45152099387182,0.245152,0.0,811.61,3.299227642276423
2.478754307284725,0.247875,0.0,811.61,3.299227642276423
2.50629014854108,0.250629,0.0,811.61,3.299227642276423
2.5341318783445423,0.253413,0.0,811.61,3.299227642276423
2.5622828947319634,0.256228,0.0,811.61,3.299227642276423
2.5907466334881044,0.259075,0.0,811.61,3.299227642276423
2.6195265685649725,0.261953,0.0,811.61,3.299227642276423
2.648626212505812,0.264863,0.0,811.61,3.299227642276423
2.678049116873801,0.267805,0.0,811.61,3.299227642276423
2.7077988726855153,0.27078,0.0,811.61,3.299227642276423
2.737879110849208,0.273788,0.0,811.61,3.299227642276423
2.7682935026079525,0.276829,0.0,811.61,3.299227642276423
2.7990457599877123,0.279905,0.0,811.61,3.299227642276423
2.8301396362503914,0.283014,0.0,811.61,3.299227642276423
2.8615789263519074,0.265731,2.69005e-07,811.59,3.299146341463415
2.8933674674053647,0.263753,1.87792e-06,811.42,3.2984552845528454
2.9255091391493653,0.265563,3.02894e-06,811.19,3.2975203252032523
2.9580078644215257,0.266263,2.98646e-06,811.03,3.296869918699187
2.9908676096372515,0.270988,3.11013e-06,810.92,3.2964227642276422
3.024092385273832,0.27257,3.78861e-06,810.76,3.2957723577235774
3.057686246359914,0.275557,3.82047e-06,810.68,3.2954471544715447
3.0916532929704084,0.278258,3.56983e-06,810.73,3.2956504065040653
3.1259976707269,0.2814,3.16027e-06,810.91,3.296382113821138
3.1607235713036137,0.285107,2.42282e-06,811.19,3.2975203252032523
3.195835232938998,0.303399,1.68297e-06,811.42,3.2984552845528454
3.2313369409529997,0.30446,1.08111e-06,811.55,3.2989837398373982
3.267233028270078,0.351433,5.26347e-07,811.6,3.299186991869919
3.3035278759480278,0.328729,2.22553e-08,811.61,3.299227642276423
3.3402259137126866,0.334023,0.0,811.61,3.299227642276423
3.377331620498571,0.337733,0.0,811.61,3.299227642276423
3.4148495249955215,0.341485,0.0,811.61,3.299227642276423
3.452784206201428,0.345278,0.0,811.61,3.299227642276423
3.4911402939810827,0.349114,0.0,811.61,3.299227642276423
3.52992246963125,0.352992,0.0,811.61,3.299227642276423
3.5691354664520105,0.356914,0.0,811.61,3.299227642276423
3.608784070324455,0.360878,0.0,811.61,3.299227642276423
3.6488731202947875,0.364887,0.0,811.61,3.299227642276423
3.6894075091649277,0.368941,0.0,811.61,3.299227642276423
3.73039218408967,0.373039,0.0,811.61,3.299227642276423
3.771832147180468,0.377183,0.0,811.61,3.299227642276423
3.8137324561159454,0.381373,0.0,811.61,3.299227642276423
3.856098224759168,0.35002,5.25699e-07,811.58,3.2991056910569108
3.898934623781784,0.352579,1.00637e-06,811.54,3.298943089430894
3.9422468812951004,0.356526,4.74536e-07,811.57,3.2990650406504067
3.9860402834881605,0.361051,9.08893e-07,811.57,3.2990650406504067
4.030320175272916,0.362921,9.55547e-07,811.56,3.2990243902439023
4.075091960936564,0.369986,1.15943e-06,811.54,3.298943089430894
4.120361104801134,0.383969,6.40398e-07,811.55,3.2989837398373982
4.166133131890395,0.383657,4.90072e-07,811.56,3.2990243902439023
4.21241362860418,0.382514,9.17839e-08,811.6,3.299186991869919
4.259208243400194,0.425921,0.0,811.61,3.299227642276423
4.3065226874833975,0.430652,0.0,811.61,3.299227642276423
4.354362735503053,0.435436,0.0,811.61,3.299227642276423
4.402734226257512,0.440273,0.0,811.61,3.299227642276423
4.451643063406824,0.445164,0.0,811.61,3.299227642276423
4.501095216193276,0.45011,0.0,811.61,3.299227642276423
4.551096720169926,0.45511,0.0,811.61,3.299227642276423
4.601653677937228,0.460165,0.0,811.61,3.299227642276423
4.652772259887852,0.465277,0.0,811.61,3.299227642276423
4.704458704959767,0.470446,0.0,811.61,3.299227642276423
4.756719321397685,0.475672,0.0,811.61,3.299227642276423
4.809560487522986,0.480956,0.0,811.61,3.299227642276423
4.862988652512174,0.486299,0.0,811.61,3.299227642276423
4.917010337183984,0.491701,0.0,811.61,3.299227642276423
4.971632134795246,0.497163,0.0,811.61,3.299227642276423
5.026860711845576,0.502686,0.0,811.61,3.299227642276423
5.082702808891011,0.50827,0.0,811.61,3.299227642276423
5.139165241366684,0.513917,0.0,811.61,3.299227642276423
5.196254900418639,0.519625,0.0,811.61,3.299227642276423
5.2539787537448746,0.525398,0.0,811.61,3.299227642276423
5.312343846445754,0.531234,0.0,811.61,3.299227642276423
5.371357301883837,0.537136,0.0,811.61,3.299227642276423
5.431026322553275,0.543103,0.0,811.61,3.299227642276423
5.491358190958871,0.549136,0.0,811.61,3.299227642276423
5.5523602705048924,0.555236,0.0,811.61,3.299227642276423
5.614040006393758,0.561404,0.0,811.61,3.299227642276423
5.676404926534721,0.56764,0.0,811.61,3.299227642276423
5.739462642462633,0.573946,0.0,811.61,3.299227642276423
5.803220850266918,0.580322,0.0,811.61,3.299227642276423
5.867687331530871,0.586769,0.0,811.61,3.299227642276423
5.932869954281387,0.593287,0.0,811.61,3.299227642276423
5.9987766739492345,0.599878,0.0,811.61,3.299227642276423
6.065415534340013,0.606542,0.0,811.61,3.299227642276423
6.132794668615875,0.613279,0.0,811.61,3.299227642276423
6.200922300288177,0.620092,0.0,811.61,3.299227642276423
6.26980674422113,0.626981,0.0,811.61,3.299227642276423
6.33945640764663,0.633946,0.0,811.61,3.299227642276423
6.409879791190342,0.640988,0.0,811.61,3.299227642276423
6.481085489909176,0.648109,0.0,811.61,3.299227642276423
6.553082194340318,0.655308,0.0,811.61,3.299227642276423
6.625878691561884,0.662588,0.0,811.61,3.299227642276423
6.699483866265369,0.669948,0.0,811.61,3.299227642276423
6.773906701840011,0.677391,0.0,811.61,3.299227642276423
6.849156281469203,0.684916,0.0,811.61,3.299227642276423
6.925241789239067,0.692524,0.0,811.61,3.299227642276423
7.0021725112593725,0.700217,0.0,811.61,3.299227642276423
7.079957836796883,0.707996,0.0,811.61,3.299227642276423
7.158607259421295,0.715861,0.0,811.61,3.299227642276423
7.238130378163925,0.723813,0.0,811.61,3.299227642276423
7.318536898689247,0.731854,0.0,811.61,3.299227642276423
7.399836634479451,0.739984,0.0,811.61,3.299227642276423
7.482039508032168,0.748204,0.0,811.61,3.299227642276423
7.565155552071494,0.756516,0.0,811.61,3.299227642276423
7.649194910772461,0.764919,0.0,811.61,3.299227642276423
7.734167840999122,0.773417,0.0,811.61,3.299227642276423
7.820084713556388,0.782008,0.0,811.61,3.299227642276423
7.906956014455753,0.790696,0.0,811.61,3.299227642276423
7.994792346195112,0.799479,0.0,811.61,3.299227642276423
8.083604429052771,0.80836,0.0,811.61,3.299227642276423
8.173403102395827,0.81734,0.0,811.61,3.299227642276423
8.264199326003121,0.82642,0.0,811.61,3.299227642276423
8.356004181402835,0.8356,0.0,811.61,3.299227642276423
8.448828873224988,0.892827,9.7251e-07,811.6,3.299186991869919
8.542684730568942,0.851115,2.07042e-06,811.55,3.2989837398373982
8.637583208386094,0.78148,3.24455e-06,811.42,3.2984552845528454
8.733535888877936,0.786272,4.47916e-06,811.27,3.2978455284552846
8.830554482909648,0.831509,5.65311e-06,811.14,3.2973170731707317
8.928650831439386,0.873768,6.78465e-06,811.01,3.296788617886179
9.027836906963444,0.961467,8.52358e-06,810.85,3.296138211382114
9.128124814977493,1.00236,9.44246e-06,810.64,3.2952845528455286
9.229526795454028,0.85242,9.26156e-06,810.36,3.294146341463415
9.332055224336228,0.858766,1.03624e-05,810.01,3.292723577235772
9.435722615048434,0.850124,1.13754e-05,809.68,3.291382113821138
9.54054162002339,0.859481,1.12345e-05,809.53,3.290772357723577
9.646525032246434,0.869014,1.08362e-05,809.59,3.2910162601626016
9.753685786816883,0.879408,1.07148e-05,809.84,3.292032520325203
9.862036962526732,0.888728,8.81136e-06,810.32,3.293983739837399
9.971591783456889,0.898091,7.47716e-06,810.83,3.296056910569106
10.082363620591163,1.10721,5.81413e-06,811.21,3.2976016260162604
10.194365993448185,1.12057,4.30708e-06,811.44,3.298536585365854
10.307612571731394,1.13111,1.57331e-06,811.55,3.2989837398373982
10.422117176997459,1.1026,3.86434e-07,811.6,3.299186991869919
10.537893784343142,1.05379,0.0,811.61,3.299227642276423
10.654956524110943,1.16978,2.74496e-07,811.6,3.299186991869919
10.7733196836137,1.17646,3.14721e-06,811.58,3.2991056910569108
10.892997708878294,1.14595,4.09091e-06,811.49,3.298739837398374
11.014005206408806,1.16463,5.15348e-06,811.3,3.2979674796747966
11.13635694496919,1.00629,6.1945e-06,811.03,3.296869918699187
11.260067857385788,1.02193,6.44304e-06,810.84,3.29609756097561
11.38515304236985,1.02815,7.4533e-06,810.76,3.2957723577235774
11.511627766360313,1.09197,7.09228e-06,810.87,3.296219512195122
11.639507465387025,1.2779,7.78455e-06,810.95,3.2965447154471548
11.768807746954717,1.29392,7.93755e-06,811.01,3.296788617886179
11.899544391947854,1.30584,8.22036e-06,811.01,3.296788617886179
12.031733356556671,1.32341,8.83983e-06,810.91,3.296382113821138
12.165390774224598,1.33673,9.60165e-06,810.71,3.295569105691057
12.300532957617323,1.13166,9.23768e-06,810.43,3.294430894308943
12.437176400613707,1.12007,1.07675e-05,810.01,3.292723577235772
12.575337780318868,1.13255,1.04907e-05,809.91,3.2923170731707314
12.715033959099575,1.14536,9.15919e-06,810.27,3.2937804878048778
12.856281986642266,1.16315,7.23019e-06,810.91,3.296382113821138
12.999099102033945,1.42405,5.61463e-06,811.35,3.2981707317073172
13.143502735866187,1.44544,1.99829e-06,811.54,3.298943089430894
13.289510512362487,1.40268,1.26888e-07,811.6,3.299186991869919
13.4371402515293,1.34371,0.0,811.61,3.299227642276423
13.58640997133093,1.35864,0.0,811.61,3.299227642276423
13.73733788988859,1.50747,1.08599e-06,811.58,3.2991056910569108
13.88994242770389,1.52654,3.8035e-06,811.53,3.29890243902439
14.044242209907045,1.53116,5.75351e-06,811.45,3.298577235772358
14.200256068530011,1.53904,7.32038e-06,811.33,3.298089430894309
14.35800304480494,1.35829,6.91376e-06,811.21,3.2976016260162604
14.517502391488105,1.30805,7.17972e-06,811.14,3.2973170731707317
14.678773575209679,1.59498,8.75076e-06,811.14,3.2973170731707317
14.841836278849597,1.6237,8.64118e-06,811.18,3.297479674796748
15.00671040393983,1.64846,7.90099e-06,811.22,3.2976422764227644
15.173416073093307,1.66632,8.0047e-06,811.25,3.2977642276422765
15.341973632459885,1.68693,8.22471e-06,811.24,3.2977235772357725
15.512403654209539,1.70586,8.48999e-06,811.2,3.2975609756097564
15.684726939043165,1.72324,8.97353e-06,811.14,3.2973170731707317
15.858964518731268,1.74412,9.72579e-06,811.07,3.2970325203252036
16.03513765868087,1.76383,1.06919e-05,810.94,3.2965040650406507
16.213267860530888,1.78139,1.20089e-05,810.75,3.2957317073170733
16.393376864776396,1.80326,1.35109e-05,810.47,3.2945934959349596
16.57548665342203,1.82182,1.53667e-05,810.12,3.293170731707317
16.75961945266481,1.84286,1.75482e-05,809.66,3.29130081300813
16.945797735606863,1.86333,1.98609e-05,809.08,3.2889430894308944
17.13404422499819,1.88418,2.24907e-05,808.32,3.2858536585365856
17.324381896009932,1.90554,2.68055e-05,807.41,3.2821544715447155
17.5168339790385,1.92579,2.81366e-05,806.3,3.277642276422764
17.711423962540767,1.94776,3.2381e-05,805.09,3.2727235772357726
17.908175595900808,1.9693,3.5563e-05,803.74,3.2672357723577234
18.10711289232847,1.99125,4.00664e-05,802.37,3.2616666666666667
18.308260131790135,1.9914,4.26151e-05,801.1,3.2565040650406507
18.511641863972084,1.93641,4.34749e-05,800.14,3.25260162601626
18.71728291127668,1.97947,4.5391e-05,799.63,3.250528455284553
18.92520837185198,2.07864,4.69962e-05,799.58,3.2503252032520327
19.135443622654865,2.01318,4.82433e-05,800.01,3.252073170731707
19.34801432254828,2.07312,4.83302e-05,800.73,3.255
19.562946415432855,2.15171,4.52234e-05,801.6,3.258536585365854
19.780266133413306,2.17203,4.13405e-05,802.72,3.263089430894309
20.000000000000004,2.1914,4.15481e-05,802.7,3.263008130081301
