freq,fwhm,norm,fit_stat,redchi
1.0471285480508996,0.115184,0.000225299,1406.39,5.717032520325204
1.0587608285836607,0.116078,0.000241746,1406.93,5.719227642276423
1.070522329115862,0.117757,0.00024306,1407.67,5.722235772357724
1.0824144851190958,0.119064,0.000235549,1409.08,5.727967479674796
1.0944387480112365,0.120387,0.000223805,1411.53,5.737926829268293
1.1065965853335857,0.121723,0.000207309,1415.01,5.752073170731707
1.1188894809299823,0.123076,0.000189442,1419.15,5.768902439024391
1.1313189351279025,0.124436,0.000158566,1423.07,5.784837398373983
1.1438864649215728,0.125828,0.000141251,1427.24,5.801788617886179
1.1565936041571172,0.127194,0.000122169,1430.97,5.8169512195121955
1.1694419037197599,0.128618,0.000109179,1433.97,5.829146341463415
1.1824329317231081,0.130063,9.98246e-05,1435.87,5.836869918699186
1.1955682737005384,0.131512,9.69035e-05,1436.7,5.840243902439025
1.2088495327987077,0.132934,9.97974e-05,1436.61,5.839878048780488
1.2222783299732152,0.134441,0.000105046,1435.91,5.837032520325203
1.2358563041864368,0.135939,0.000113972,1435.13,5.833861788617886
1.2495851126075586,0.137453,0.000122403,1434.77,5.8323983739837395
1.2634664308148307,0.138039,0.000125691,1435.12,5.833821138211381
1.2775019530000689,0.140494,0.000113296,1435.72,5.836260162601626
1.2916933921754286,0.139921,0.000112147,1437.3,5.842682926829268
1.3060424803824748,0.143354,9.48496e-05,1438.26,5.846585365853659
1.3205509689035746,0.145252,8.41772e-05,1439.36,5.851056910569105
1.3352206284756383,0.146868,7.75483e-05,1440.38,5.855203252032521
1.3500532495062354,0.148496,7.09538e-05,1441.36,5.859186991869918
1.3650506422921107,0.149905,6.47421e-05,1442.36,5.863252032520325
1.3802146372401272,0.151807,5.88382e-05,1443.31,5.8671138211382114
1.3955470850906657,0.153429,5.36647e-05,1444.17,5.870609756097561
1.4110498571435033,0.155085,4.92695e-05,1444.9,5.873577235772358
1.4267248454862032,0.154856,4.51413e-05,1445.49,5.875975609756098
1.4425739632250398,0.158504,4.14535e-05,1445.87,5.8775203252032515
1.4585991447184923,0.137925,3.60483e-05,1446.18,5.878780487804878
1.474802345813327,0.132818,3.42344e-05,1446.36,5.879512195121951
1.491185544083308,0.134246,3.01363e-05,1446.78,5.881219512195122
1.5077507390705542,0.135718,2.40524e-05,1447.47,5.884024390243902
1.5244999525295826,0.137211,1.54999e-05,1448.28,5.887317073170731
1.5414352286740576,0.138813,1.05229e-05,1448.88,5.889756097560976
1.5585586344262863,0.14284,8.93869e-07,1449.25,5.891260162601626
1.5758722596694812,0.157587,0.0,1449.27,5.891341463414634
1.593378217502827,0.159338,0.0,1449.27,5.891341463414634
1.6110786444993823,0.161108,0.0,1449.27,5.891341463414634
1.6289757009668435,0.162898,0.0,1449.27,5.891341463414634
1.6470715712112072,0.164707,0.0,1449.27,5.891341463414634
1.6653684638033603,0.166537,0.0,1449.27,5.891341463414634
1.6838686118486341,0.168387,0.0,1449.27,5.891341463414634
1.70257427325935,0.170257,0.0,1449.27,5.891341463414634
1.7214877310303935,0.172149,0.0,1449.27,5.891341463414634
1.7406112935178513,0.174061,0.0,1449.27,5.891341463414634
1.7599472947207409,0.175995,0.0,1449.27,5.891341463414634
1.779498094565872,0.17795,0.0,1449.27,5.891341463414634
1.7992660791958721,0.179927,0.0,1449.27,5.891341463414634
1.81925366126041,0.181925,0.0,1449.27,5.891341463414634
1.839463280210657,0.183946,0.0,1449.27,5.891341463414634
1.8598974025970172,0.18599,0.0,1449.27,5.891341463414634
1.8805585223701655,0.188056,0.0,1449.27,5.891341463414634
1.901449161185431,0.190145,0.0,1449.27,5.891341463414634
1.9225718687105604,0.192257,0.0,1449.27,5.891341463414634
1.9439292229369007,0.194393,0.0,1449.27,5.891341463414634
1.9655238304940383,0.196552,0.0,1449.27,5.891341463414634
1.9873583269679354,0.198736,0.0,1449.27,5.891341463414634
2.0094353772225966,0.200944,0.0,1449.27,5.891341463414634
2.031757675725313,0.203176,0.0,1449.27,5.891341463414634
2.0543279468755165,0.205433,0.0,1449.27,5.891341463414634
2.077148945337289,0.207715,0.0,1449.27,5.891341463414634
2.100223456375563,0.210022,0.0,1449.27,5.891341463414634
2.123554296196061,0.212355,0.0,1449.27,5.891341463414634
2.147144312289006,0.214714,0.0,1449.27,5.891341463414634
2.1709963837766555,0.2171,0.0,1449.27,5.891341463414634
2.1951134217646913,0.219511,0.0,1449.27,5.891341463414634
2.219498369697517,0.22195,0.0,1449.27,5.891341463414634
2.244154203717499,0.224415,0.0,1449.27,5.891341463414634
2.269083933028201,0.226908,0.0,1449.27,5.891341463414634
2.2942906002616517,0.229429,0.0,1449.27,5.891341463414634
2.3197772818496922,0.231978,0.0,1449.27,5.891341463414634
2.3455470883994516,0.234555,0.0,1449.27,5.891341463414634
2.371603165072989,0.23716,0.0,1449.27,5.891341463414634
2.397948691971156,0.239795,0.0,1449.27,5.891341463414634
2.424586884521724,0.242459,0.0,1449.27,5.891341463414634
2.45152099387182,0.245152,0.0,1449.27,5.891341463414634
2.478754307284725,0.247875,0.0,1449.27,5.891341463414634
2.50629014854108,0.250629,0.0,1449.27,5.891341463414634
2.5341318783445423,0.253413,0.0,1449.27,5.891341463414634
2.5622828947319634,0.256228,0.0,1449.27,5.891341463414634
2.5907466334881044,0.259075,0.0,1449.27,5.891341463414634
2.6195265685649725,0.261953,0.0,1449.27,5.891341463414634
2.648626212505812,0.264863,0.0,1449.27,5.891341463414634
2.678049116873801,0.267805,0.0,1449.27,5.891341463414634
2.7077988726855153,0.27078,0.0,1449.27,5.891341463414634
2.737879110849208,0.273788,0.0,1449.27,5.891341463414634
2.7682935026079525,0.276829,0.0,1449.27,5.891341463414634
2.7990457599877123,0.279905,0.0,1449.27,5.891341463414634
2.8301396362503914,0.283014,0.0,1449.27,5.891341463414634
2.8615789263519074,0.286158,0.0,1449.27,5.891341463414634
2.8933674674053647,0.289337,0.0,1449.27,5.891341463414634
2.9255091391493653,0.292551,0.0,1449.27,5.891341463414634
2.9580078644215257,0.295801,0.0,1449.27,5.891341463414634
2.9908676096372515,0.299087,0.0,1449.27,5.891341463414634
3.024092385273832,0.302409,0.0,1449.27,5.891341463414634
3.057686246359914,0.305769,0.0,1449.27,5.891341463414634
3.0916532929704084,0.309165,0.0,1449.27,5.891341463414634
3.1259976707269,0.3126,0.0,1449.27,5.891341463414634
3.1607235713036137,0.316072,0.0,1449.27,5.891341463414634
3.195835232938998,0.319584,0.0,1449.27,5.891341463414634
3.2313369409529997,0.323134,0.0,1449.27,5.891341463414634
3.267233028270078,0.326723,0.0,1449.27,5.891341463414634
3.3035278759480278,0.330353,0.0,1449.27,5.891341463414634
3.3402259137126866,0.334023,0.0,1449.27,5.891341463414634
3.377331620498571,0.337733,0.0,1449.27,5.891341463414634
3.4148495249955215,0.341485,0.0,1449.27,5.891341463414634
3.452784206201428,0.345278,0.0,1449.27,5.891341463414634
3.4911402939810827,0.349114,0.0,1449.27,5.891341463414634
3.52992246963125,0.352992,0.0,1449.27,5.891341463414634
3.5691354664520105,0.356914,0.0,1449.27,5.891341463414634
3.608784070324455,0.360878,0.0,1449.27,5.891341463414634
3.6488731202947875,0.364887,0.0,1449.27,5.891341463414634
3.6894075091649277,0.368941,0.0,1449.27,5.891341463414634
3.73039218408967,0.373039,0.0,1449.27,5.891341463414634
3.771832147180468,0.377183,0.0,1449.27,5.891341463414634
3.8137324561159454,0.401722,7.91556e-06,1449.14,5.890813008130082
3.856098224759168,0.42388,1.35292e-05,1448.73,5.889146341463415
3.898934623781784,0.4287,2.00193e-05,1448.09,5.886544715447154
3.9422468812951004,0.433619,2.73881e-05,1447.16,5.8827642276422765
3.9860402834881605,0.438346,3.56726e-05,1445.88,5.877560975609756
4.030320175272916,0.443277,4.32316e-05,1444.2,5.8707317073170735
4.075091960936564,0.448184,5.06531e-05,1442.12,5.862276422764227
4.120361104801134,0.453209,5.86728e-05,1439.56,5.851869918699187
4.166133131890395,0.458205,6.84316e-05,1436.25,5.838414634146342
4.21241362860418,0.463365,8.41301e-05,1431.87,5.820609756097561
4.259208243400194,0.468513,9.99378e-05,1425.91,5.796382113821139
4.3065226874833975,0.473717,0.00011696,1418.51,5.76630081300813
4.354362735503053,0.478978,0.000128492,1410.28,5.732845528455284
4.402734226257512,0.4843,0.000146782,1402.05,5.699390243902439
4.451643063406824,0.489681,0.000160054,1393.5,5.664634146341464
4.501095216193276,0.495118,0.000173869,1384.33,5.627357723577235
4.551096720169926,0.500621,0.000190055,1374.42,5.587073170731707
4.601653677937228,0.506182,0.000208684,1363.86,5.5441463414634145
4.652772259887852,0.511805,0.000229043,1352.92,5.499674796747968
4.704458704959767,0.51749,0.00025055,1341.87,5.454756097560975
4.756719321397685,0.523239,0.000273614,1330.59,5.40890243902439
4.809560487522986,0.529037,0.000292125,1318.2,5.3585365853658535
4.862988652512174,0.534924,0.000323266,1303.81,5.300040650406504
4.917010337183984,0.540861,0.000359367,1285.9,5.227235772357724
4.971632134795246,0.546872,0.000407123,1263.44,5.135934959349593
5.026860711845576,0.552955,0.000472586,1236.38,5.025934959349594
5.082702808891011,0.559097,0.000540049,1204.81,4.89760162601626
5.139165241366684,0.565308,0.000655955,1170.33,4.757439024390243
5.196254900418639,0.571587,0.000800937,1132.3,4.602845528455284
5.2539787537448746,0.57792,0.000886511,1078.47,4.384024390243902
5.312343846445754,0.58434,0.000983829,1019.94,4.14609756097561
5.371357301883837,0.590733,0.00109548,961.52,3.908617886178862
5.431026322553275,0.576808,0.0012088,907.74,3.69
5.491358190958871,0.553018,0.0013052,861.71,3.5028861788617887
5.5523602705048924,0.526303,0.00137149,827.47,3.36369918699187
5.614040006393758,0.505352,0.0013906,811.3,3.2979674796747966
5.676404926534721,0.51088,0.00133964,824.04,3.3497560975609755
5.739462642462633,0.516605,0.00121028,866.84,3.523739837398374
5.803220850266918,0.522304,0.00104819,926.53,3.766382113821138
5.867687331530871,0.528108,0.000890599,989.66,4.0230081300813
5.932869954281387,0.534024,0.000743791,1053.48,4.282439024390244
5.9987766739492345,0.539977,0.000613115,1118.61,4.547195121951219
6.065415534340013,0.54589,0.000506715,1180.46,4.798617886178862
6.132794668615875,0.565805,0.00042178,1233.83,5.015569105691057
6.200922300288177,0.585146,0.000347283,1277.43,5.192804878048781
6.26980674422113,0.605764,0.000286728,1314.14,5.342032520325204
6.33945640764663,0.652518,0.000238357,1345.3,5.46869918699187
6.409879791190342,0.704654,0.000200883,1370.55,5.571341463414634
6.481085489909176,0.712865,0.000168904,1390.66,5.653089430894309
6.553082194340318,0.710989,0.000138403,1406.44,5.717235772357724
6.625878691561884,0.728428,0.000105473,1418.51,5.76630081300813
6.699483866265369,0.734698,8.40017e-05,1428.49,5.806869918699187
6.773906701840011,0.744918,6.24954e-05,1436.39,5.838983739837399
6.849156281469203,0.75298,4.62471e-05,1442.39,5.863373983739838
6.925241789239067,0.752843,2.85491e-05,1446.43,5.87979674796748
7.0021725112593725,0.768639,1.31694e-05,1448.64,5.888780487804879
7.079957836796883,0.707996,0.0,1449.27,5.891341463414634
7.158607259421295,0.715861,0.0,1449.27,5.891341463414634
7.238130378163925,0.723813,0.0,1449.27,5.891341463414634
7.318536898689247,0.731854,0.0,1449.27,5.891341463414634
7.399836634479451,0.739984,0.0,1449.27,5.891341463414634
7.482039508032168,0.748204,0.0,1449.27,5.891341463414634
7.565155552071494,0.756516,0.0,1449.27,5.891341463414634
7.649194910772461,0.764919,0.0,1449.27,5.891341463414634
7.734167840999122,0.773417,0.0,1449.27,5.891341463414634
7.820084713556388,0.782008,0.0,1449.27,5.891341463414634
7.906956014455753,0.790696,0.0,1449.27,5.891341463414634
7.994792346195112,0.799479,0.0,1449.27,5.891341463414634
8.083604429052771,0.80836,0.0,1449.27,5.891341463414634
8.173403102395827,0.81734,0.0,1449.27,5.891341463414634
8.264199326003121,0.82642,0.0,1449.27,5.891341463414634
8.356004181402835,0.8356,0.0,1449.27,5.891341463414634
8.448828873224988,0.844883,0.0,1449.27,5.891341463414634
8.542684730568942,0.854268,0.0,1449.27,5.891341463414634
8.637583208386094,0.863758,0.0,1449.27,5.891341463414634
8.733535888877936,0.873354,0.0,1449.27,5.891341463414634
8.830554482909648,0.883055,0.0,1449.27,5.891341463414634
8.928650831439386,0.892865,0.0,1449.27,5.891341463414634
9.027836906963444,0.902784,0.0,1449.27,5.891341463414634
9.128124814977493,0.912812,0.0,1449.27,5.891341463414634
9.229526795454028,0.922953,0.0,1449.27,5.891341463414634
9.332055224336228,0.933206,0.0,1449.27,5.891341463414634
9.435722615048434,0.943572,0.0,1449.27,5.891341463414634
9.54054162002339,0.954054,0.0,1449.27,5.891341463414634
9.646525032246434,0.964653,0.0,1449.27,5.891341463414634
9.753685786816883,0.975369,0.0,1449.27,5.891341463414634
9.862036962526732,1.08379,1.20809e-05,1448.95,5.890040650406505
9.971591783456889,1.09679,2.30257e-05,1447.48,5.884065040650406
10.082363620591163,1.10896,3.53805e-05,1444.72,5.872845528455285
10.194365993448185,1.12068,4.87355e-05,1440.53,5.855813008130081
10.307612571731394,1.13369,6.74365e-05,1434.77,5.8323983739837395
10.422117176997459,1.1457,8.22317e-05,1427.07,5.8010975609756095
10.537893784343142,1.15805,0.000105137,1417.27,5.7612601626016255
10.654956524110943,1.03773,0.000118405,1404.84,5.7107317073170725
10.7733196836137,0.969703,0.000128306,1389.95,5.6502032520325205
10.892997708878294,0.980451,0.000140311,1375.89,5.5930487804878055
11.014005206408806,0.991269,0.000151121,1365.02,5.548861788617886
11.13635694496919,1.00228,0.000156638,1359.77,5.527520325203252
11.260067857385788,1.01347,0.000170197,1359.4,5.526016260162602
11.38515304236985,1.02475,0.000150153,1367.14,5.557479674796748
11.511627766360313,1.0928,0.00014311,1377.08,5.597886178861788
11.639507465387025,1.1795,0.000140958,1386.97,5.6380894308943095
11.768807746954717,1.29421,0.000132876,1395.68,5.67349593495935
11.899544391947854,1.30894,0.000122628,1403.37,5.704756097560975
12.031733356556671,1.30681,0.000108385,1410.43,5.7334552845528455
12.165390774224598,1.25009,9.47054e-05,1417.36,5.761626016260162
12.300532957617323,1.28406,8.31518e-05,1424.38,5.790162601626017
12.437176400613707,1.3338,7.67332e-05,1431.27,5.818170731707317
12.575337780318868,1.38324,6.05527e-05,1436.92,5.841138211382114
12.715033959099575,1.39809,4.79192e-05,1441.43,5.859471544715447
12.856281986642266,1.41411,3.58211e-05,1444.61,5.8723983739837395
12.999099102033945,1.42955,2.72139e-05,1446.73,5.8810162601626015
13.143502735866187,1.44542,2.0285e-05,1448.02,5.8862601626016255
13.289510512362487,1.46174,1.42206e-05,1448.72,5.889105691056911
13.4371402515293,1.47486,9.32256e-06,1449.06,5.890487804878049
13.58640997133093,1.49197,3.13194e-06,1449.2,5.891056910569106
13.73733788988859,1.49059,1.69615e-06,1449.26,5.89130081300813
13.88994242770389,1.38899,0.0,1449.27,5.891341463414634
14.044242209907045,1.40442,0.0,1449.27,5.891341463414634
14.200256068530011,1.42003,0.0,1449.27,5.891341463414634
14.35800304480494,1.4358,0.0,1449.27,5.891341463414634
14.517502391488105,1.45175,0.0,1449.27,5.891341463414634
14.678773575209679,1.46788,0.0,1449.27,5.891341463414634
14.841836278849597,1.48418,0.0,1449.27,5.891341463414634
15.00671040393983,1.50067,0.0,1449.27,5.891341463414634
15.173416073093307,1.51734,0.0,1449.27,5.891341463414634
15.341973632459885,1.5342,0.0,1449.27,5.891341463414634
15.512403654209539,1.55124,0.0,1449.27,5.891341463414634
15.684726939043165,1.56847,0.0,1449.27,5.891341463414634
15.858964518731268,1.5859,0.0,1449.27,5.891341463414634
16.03513765868087,1.60351,0.0,1449.27,5.891341463414634
16.213267860530888,1.62133,0.0,1449.27,5.891341463414634
16.393376864776396,1.63934,0.0,1449.27,5.891341463414634
16.57548665342203,1.65755,0.0,1449.27,5.891341463414634
16.75961945266481,1.67596,0.0,1449.27,5.891341463414634
16.945797735606863,1.69458,0.0,1449.27,5.891341463414634
17.13404422499819,1.7134,0.0,1449.27,5.891341463414634
17.324381896009932,1.73244,0.0,1449.27,5.891341463414634
17.5168339790385,1.75168,0.0,1449.27,5.891341463414634
17.711423962540767,1.77114,0.0,1449.27,5.891341463414634
17.908175595900808,1.79082,0.0,1449.27,5.891341463414634
18.10711289232847,1.81071,0.0,1449.27,5.891341463414634
18.308260131790135,1.83083,0.0,1449.27,5.891341463414634
18.511641863972084,1.85116,0.0,1449.27,5.891341463414634
18.71728291127668,1.87173,0.0,1449.27,5.891341463414634
18.92520837185198,1.89252,0.0,1449.27,5.891341463414634
19.135443622654865,1.91354,0.0,1449.27,5.891341463414634
19.34801432254828,1.9348,0.0,1449.27,5.891341463414634
19.562946415432855,1.95629,0.0,1449.27,5.891341463414634
19.780266133413306,1.97803,0.0,1449.27,5.891341463414634
20.000000000000004,2.0,0.0,1449.27,5.891341463414634
