freq,fwhm,norm,fit_stat,redchi
1.0471285480508996,0.115014,0.00425619,327.45,1.3310975609756097
1.0587608285836607,0.116392,0.00404304,328.01,1.3333739837398373
1.070522329115862,0.117743,0.00394158,328.68,1.3360975609756098
1.0824144851190958,0.119005,0.0036817,329.37,1.3389024390243902
1.0944387480112365,0.120345,0.00360586,330.15,1.3420731707317073
1.1065965853335857,0.121715,0.00349812,330.92,1.3452032520325203
1.1188894809299823,0.122989,0.00335961,331.52,1.3476422764227642
1.1313189351279025,0.124436,0.00332712,331.81,1.3488211382113822
1.1438864649215728,0.125796,0.00346019,331.74,1.3485365853658537
1.1565936041571172,0.127127,0.00371094,331.39,1.3471138211382114
1.1694419037197599,0.1286,0.00414126,330.94,1.3452845528455284
1.1824329317231081,0.130068,0.00457601,330.68,1.3442276422764228
1.1955682737005384,0.131365,0.00455942,330.68,1.3442276422764228
1.2088495327987077,0.132972,0.00454842,331.13,1.3460569105691056
1.2222783299732152,0.13374,0.0042394,331.83,1.3489024390243902
1.2358563041864368,0.135944,0.00381479,332.52,1.3517073170731706
1.2495851126075586,0.137359,0.00335347,333.1,1.3540650406504067
1.2634664308148307,0.138979,0.00319447,333.55,1.3558943089430895
1.2775019530000689,0.140511,0.00310848,333.87,1.3571951219512195
1.2916933921754286,0.142086,0.00323045,334.19,1.3584959349593495
1.3060424803824748,0.143665,0.00285932,334.33,1.3590650406504063
1.3205509689035746,0.145171,0.00275231,334.47,1.3596341463414636
1.3352206284756383,0.14683,0.0026952,334.55,1.359959349593496
1.3500532495062354,0.148448,0.00263601,334.58,1.3600813008130082
1.3650506422921107,0.150121,0.00256475,334.55,1.359959349593496
1.3802146372401272,0.151778,0.002721,334.48,1.3596747967479677
1.3955470850906657,0.15316,0.00262199,334.31,1.3589837398373983
1.4110498571435033,0.154346,0.0028817,334.21,1.3585772357723576
1.4267248454862032,0.156918,0.0030308,334.26,1.358780487804878
1.4425739632250398,0.158604,0.00268833,334.47,1.3596341463414636
1.4585991447184923,0.160372,0.00275473,334.89,1.3613414634146341
1.474802345813327,0.162181,0.00249331,335.28,1.3629268292682926
1.491185544083308,0.163845,0.00235862,335.57,1.3641056910569105
1.5077507390705542,0.165816,0.00232715,335.65,1.364430894308943
1.5244999525295826,0.167659,0.00240645,335.55,1.3640243902439024
1.5414352286740576,0.169474,0.00262836,335.34,1.363170731707317
1.5585586344262863,0.17112,0.00260201,335.09,1.3621544715447154
1.5758722596694812,0.152924,0.00247287,334.93,1.3615040650406505
1.593378217502827,0.144239,0.0023025,334.88,1.36130081300813
1.6110786444993823,0.145898,0.00220216,334.99,1.3617479674796749
1.6289757009668435,0.146868,0.00214893,335.13,1.3623170731707317
1.6470715712112072,0.149887,0.00193751,335.29,1.3629674796747968
1.6653684638033603,0.150012,0.00175664,335.54,1.3639837398373984
1.6838686118486341,0.151711,0.00158979,335.96,1.365691056910569
1.70257427325935,0.153277,0.00126707,336.54,1.368048780487805
1.7214877310303935,0.158712,0.000857588,337.1,1.3703252032520326
1.7406112935178513,0.173106,0.000560287,337.44,1.3717073170731706
1.7599472947207409,0.190415,0.000234105,337.58,1.3722764227642277
1.779498094565872,0.17795,0.0,337.61,1.37239837398374
1.7992660791958721,0.179927,0.0,337.61,1.37239837398374
1.81925366126041,0.181925,0.0,337.61,1.37239837398374
1.839463280210657,0.183946,0.0,337.61,1.37239837398374
1.8598974025970172,0.18599,0.0,337.61,1.37239837398374
1.8805585223701655,0.188056,0.0,337.61,1.37239837398374
1.901449161185431,0.190145,0.0,337.61,1.37239837398374
1.9225718687105604,0.192257,0.0,337.61,1.37239837398374
1.9439292229369007,0.194393,0.0,337.61,1.37239837398374
1.9655238304940383,0.196552,0.0,337.61,1.37239837398374
1.9873583269679354,0.198736,0.0,337.61,1.37239837398374
2.0094353772225966,0.200944,0.0,337.61,1.37239837398374
2.031757675725313,0.203176,0.0,337.61,1.37239837398374
2.0543279468755165,0.205433,0.0,337.61,1.37239837398374
2.077148945337289,0.207715,0.0,337.61,1.37239837398374
2.100223456375563,0.210022,0.0,337.61,1.37239837398374
2.123554296196061,0.212355,0.0,337.61,1.37239837398374
2.147144312289006,0.214714,0.0,337.61,1.37239837398374
2.1709963837766555,0.2171,0.0,337.61,1.37239837398374
2.1951134217646913,0.219511,0.0,337.61,1.37239837398374
2.219498369697517,0.22195,0.0,337.61,1.37239837398374
2.244154203717499,0.224415,0.0,337.61,1.37239837398374
2.269083933028201,0.226908,0.0,337.61,1.37239837398374
2.2942906002616517,0.229429,0.0,337.61,1.37239837398374
2.3197772818496922,0.231978,0.0,337.61,1.37239837398374
2.3455470883994516,0.234555,0.0,337.61,1.37239837398374
2.371603165072989,0.23716,0.0,337.61,1.37239837398374
2.397948691971156,0.239795,0.0,337.61,1.37239837398374
2.424586884521724,0.242459,0.0,337.61,1.37239837398374
2.45152099387182,0.245152,0.0,337.61,1.37239837398374
2.478754307284725,0.247875,0.0,337.61,1.37239837398374
2.50629014854108,0.250629,0.0,337.61,1.37239837398374
2.5341318783445423,0.253413,0.0,337.61,1.37239837398374
2.5622828947319634,0.256228,0.0,337.61,1.37239837398374
2.5907466334881044,0.259075,0.0,337.61,1.37239837398374
2.6195265685649725,0.261953,0.0,337.61,1.37239837398374
2.648626212505812,0.2427,3.28972e-05,337.6,1.372357723577236
2.678049116873801,0.242802,5.51392e-05,337.59,1.3723170731707317
2.7077988726855153,0.245971,5.56683e-05,337.59,1.3723170731707317
2.737879110849208,0.256667,0.000108533,337.59,1.3723170731707317
2.7682935026079525,0.2623,6.92772e-05,337.6,1.372357723577236
2.7990457599877123,0.264664,1.5692e-05,337.6,1.372357723577236
2.8301396362503914,0.265633,8.56058e-06,337.61,1.37239837398374
2.8615789263519074,0.308506,1.22849e-05,337.61,1.37239837398374
2.8933674674053647,0.304456,6.68473e-05,337.6,1.372357723577236
2.9255091391493653,0.311989,0.000132679,337.6,1.372357723577236
2.9580078644215257,0.320295,0.000226482,337.59,1.3723170731707317
2.9908676096372515,0.322839,0.000338442,337.57,1.3722357723577236
3.024092385273832,0.319459,0.000467079,337.53,1.3720731707317073
3.057686246359914,0.324623,0.000614902,337.45,1.3717479674796746
3.0916532929704084,0.338803,0.000788137,337.33,1.3712601626016259
3.1259976707269,0.306475,0.000978519,337.16,1.370569105691057
3.1607235713036137,0.288081,0.00105147,336.96,1.3697560975609755
3.195835232938998,0.290206,0.00136522,336.73,1.3688211382113822
3.2313369409529997,0.291215,0.00155598,336.52,1.3679674796747967
3.267233028270078,0.29418,0.00172843,336.33,1.3671951219512195
3.3035278759480278,0.299731,0.00189516,336.12,1.3663414634146342
3.3402259137126866,0.300901,0.00210097,335.9,1.3654471544715445
3.377331620498571,0.304754,0.0022502,335.71,1.3646747967479673
3.4148495249955215,0.309458,0.00218425,335.73,1.3647560975609756
3.452784206201428,0.310873,0.00215377,335.99,1.3658130081300814
3.4911402939810827,0.323642,0.0018458,336.46,1.3677235772357723
3.52992246963125,0.384953,0.00179594,336.8,1.3691056910569106
3.5691354664520105,0.390692,0.00160489,337.05,1.3701219512195122
3.608784070324455,0.396841,0.00141916,337.19,1.370691056910569
3.6488731202947875,0.401088,0.00116686,337.25,1.3709349593495934
3.6894075091649277,0.403504,0.00107205,337.29,1.3710975609756098
3.73039218408967,0.410005,0.00106397,337.31,1.3711788617886178
3.771832147180468,0.414198,0.000954344,337.33,1.3712601626016259
3.8137324561159454,0.403891,0.000818483,337.36,1.3713821138211382
3.856098224759168,0.410558,0.000766464,337.39,1.3715040650406503
3.898934623781784,0.428577,0.000719499,337.43,1.3716666666666666
3.9422468812951004,0.415283,0.000675059,337.48,1.3718699186991872
3.9860402834881605,0.427936,0.000658063,337.53,1.3720731707317073
4.030320175272916,0.44164,0.000363838,337.54,1.3721138211382116
4.075091960936564,0.446942,0.000334066,337.55,1.3721544715447156
4.120361104801134,0.450694,0.000695124,337.53,1.3720731707317073
4.166133131890395,0.457198,0.0008189,337.44,1.3717073170731706
4.21241362860418,0.462238,0.000990345,337.3,1.3711382113821138
4.259208243400194,0.393811,0.00104909,337.13,1.3704471544715446
4.3065226874833975,0.391432,0.0013107,336.96,1.3697560975609755
4.354362735503053,0.409554,0.00145931,336.87,1.369390243902439
4.402734226257512,0.463591,0.00174045,336.8,1.3691056910569106
4.451643063406824,0.444484,0.00168339,336.7,1.3686991869918699
4.501095216193276,0.413627,0.00163877,336.56,1.368130081300813
4.551096720169926,0.409839,0.00168057,336.48,1.3678048780487806
4.601653677937228,0.415513,0.00164038,336.58,1.368211382113821
4.652772259887852,0.423093,0.00153865,336.79,1.3690650406504066
4.704458704959767,0.466518,0.00145031,336.97,1.3697967479674797
4.756719321397685,0.443428,0.00129673,337.09,1.3702845528455283
4.809560487522986,0.443851,0.00104303,337.17,1.370609756097561
4.862988652512174,0.438055,0.000839375,337.26,1.3709756097560974
4.917010337183984,0.444893,0.00072818,337.39,1.3715040650406503
4.971632134795246,0.456353,0.000117011,337.59,1.3723170731707317
5.026860711845576,0.502686,0.0,337.61,1.37239837398374
5.082702808891011,0.50827,0.0,337.61,1.37239837398374
5.139165241366684,0.513917,0.0,337.61,1.37239837398374
5.196254900418639,0.519625,0.0,337.61,1.37239837398374
5.2539787537448746,0.525398,0.0,337.61,1.37239837398374
5.312343846445754,0.531234,0.0,337.61,1.37239837398374
5.371357301883837,0.537136,0.0,337.61,1.37239837398374
5.431026322553275,0.543103,0.0,337.61,1.37239837398374
5.491358190958871,0.549136,0.0,337.61,1.37239837398374
5.5523602705048924,0.555236,0.0,337.61,1.37239837398374
5.614040006393758,0.510485,2.52717e-05,337.6,1.372357723577236
5.676404926534721,0.526997,0.00014459,337.6,1.372357723577236
5.739462642462633,0.526005,0.000212481,337.59,1.3723170731707317
5.803220850266918,0.536398,0.000268068,337.58,1.3722764227642277
5.867687331530871,0.539451,0.000293924,337.58,1.3722764227642277
5.932869954281387,0.536726,0.000273531,337.58,1.3722764227642277
5.9987766739492345,0.559373,0.000206802,337.59,1.3723170731707317
6.065415534340013,0.555132,4.85559e-05,337.6,1.372357723577236
6.132794668615875,0.613279,0.0,337.61,1.37239837398374
6.200922300288177,0.620092,0.0,337.61,1.37239837398374
6.26980674422113,0.626981,0.0,337.61,1.37239837398374
6.33945640764663,0.633946,0.0,337.61,1.37239837398374
6.409879791190342,0.640988,0.0,337.61,1.37239837398374
6.481085489909176,0.648109,0.0,337.61,1.37239837398374
6.553082194340318,0.655308,0.0,337.61,1.37239837398374
6.625878691561884,0.662588,0.0,337.61,1.37239837398374
6.699483866265369,0.669948,0.0,337.61,1.37239837398374
6.773906701840011,0.677391,0.0,337.61,1.37239837398374
6.849156281469203,0.650254,4.79319e-07,337.61,1.37239837398374
6.925241789239067,0.645665,0.00041563,337.53,1.3720731707317073
7.0021725112593725,0.664274,0.000848345,337.36,1.3713821138211382
7.079957836796883,0.647511,0.00118896,337.18,1.370650406504065
7.158607259421295,0.653869,0.00143052,337.02,1.3699999999999999
7.238130378163925,0.668396,0.00176193,336.83,1.3692276422764227
7.318536898689247,0.683553,0.00188689,336.63,1.3684146341463415
7.399836634479451,0.669224,0.00216498,336.43,1.3676016260162602
7.482039508032168,0.682671,0.00206398,336.36,1.3673170731707318
7.565155552071494,0.695181,0.00226943,336.35,1.3672764227642278
7.649194910772461,0.812969,0.00255501,336.41,1.3675203252032522
7.734167840999122,0.850452,0.00252345,336.5,1.3678861788617886
7.820084713556388,0.859513,0.00256698,336.63,1.3684146341463415
7.906956014455753,0.868969,0.00237798,336.73,1.3688211382113822
7.994792346195112,0.878353,0.0024621,336.74,1.3688617886178862
8.083604429052771,0.888918,0.00265407,336.58,1.368211382113821
8.173403102395827,0.899066,0.00297645,336.23,1.366788617886179
8.264199326003121,0.908462,0.00353365,335.73,1.3647560975609756
8.356004181402835,0.916446,0.00385889,335.15,1.3623983739837398
8.448828873224988,0.7611,0.00374044,334.47,1.3596341463414636
8.542684730568942,0.76956,0.00419673,333.92,1.3573983739837399
8.637583208386094,0.77812,0.00433474,333.75,1.3567073170731707
8.733535888877936,0.786733,0.00421951,334.03,1.3578455284552844
8.830554482909648,0.818419,0.00383389,334.64,1.3603252032520325
8.928650831439386,0.941936,0.00417657,335.2,1.3626016260162601
9.027836906963444,0.99281,0.00358913,335.64,1.364390243902439
9.128124814977493,1.00278,0.00316085,336.02,1.3659349593495935
9.229526795454028,1.01283,0.0027581,336.33,1.3671951219512195
9.332055224336228,1.02371,0.00240189,336.6,1.3682926829268294
9.435722615048434,1.02869,0.00212356,336.85,1.369308943089431
9.54054162002339,1.04812,0.00179162,337.03,1.370040650406504
9.646525032246434,1.05748,0.00157264,337.17,1.370609756097561
9.753685786816883,0.961326,0.00132903,337.26,1.3709756097560974
9.862036962526732,0.8877,0.00102858,337.3,1.3711382113821138
9.971591783456889,0.905799,0.000995066,337.37,1.3714227642276422
10.082363620591163,0.917863,0.000257456,337.55,1.3721544715447156
10.194365993448185,1.01944,0.0,337.61,1.37239837398374
10.307612571731394,1.03076,0.0,337.61,1.37239837398374
10.422117176997459,1.04221,0.0,337.61,1.37239837398374
10.537893784343142,1.05379,0.0,337.61,1.37239837398374
10.654956524110943,1.0655,0.0,337.61,1.37239837398374
10.7733196836137,1.07733,0.0,337.61,1.37239837398374
10.892997708878294,1.0893,0.0,337.61,1.37239837398374
11.014005206408806,1.1014,0.0,337.61,1.37239837398374
11.13635694496919,1.11364,0.0,337.61,1.37239837398374
11.260067857385788,1.12601,0.0,337.61,1.37239837398374
11.38515304236985,1.13852,0.0,337.61,1.37239837398374
11.511627766360313,1.15116,0.0,337.61,1.37239837398374
11.639507465387025,1.06854,8.55883e-05,337.6,1.372357723577236
11.768807746954717,1.05985,0.000665367,337.5,1.3719512195121952
11.899544391947854,1.08717,0.000624139,337.47,1.3718292682926831
12.031733356556671,1.08782,0.00100732,337.42,1.3716260162601626
12.165390774224598,1.19876,0.00135575,337.36,1.3713821138211382
12.300532957617323,1.10789,0.00157422,337.22,1.3708130081300813
12.437176400613707,1.12005,0.00184229,337.02,1.3699999999999999
12.575337780318868,1.14449,0.00176582,336.92,1.3695934959349594
12.715033959099575,1.15822,0.00173777,336.91,1.3695528455284554
12.856281986642266,1.15755,0.0018174,337.01,1.3699593495934959
12.999099102033945,1.17345,0.00158647,337.22,1.3708130081300813
13.143502735866187,1.43782,0.0014218,337.37,1.3714227642276422
13.289510512362487,1.45951,0.00132272,337.45,1.3717479674796746
13.4371402515293,1.4266,0.00130661,337.5,1.3719512195121952
13.58640997133093,1.49407,0.00134097,337.45,1.3717479674796746
13.73733788988859,1.50953,0.00158745,337.37,1.3714227642276422
13.88994242770389,1.27247,0.00139226,337.27,1.3710162601626015
14.044242209907045,1.28798,0.0016633,337.15,1.3705284552845527
14.200256068530011,1.3045,0.00178847,337.12,1.3704065040650406
14.35800304480494,1.31313,0.00173996,337.17,1.370609756097561
14.517502391488105,1.53573,0.00191302,337.23,1.3708536585365854
14.678773575209679,1.5923,0.00199799,337.27,1.3710162601626015
14.841836278849597,1.61107,0.00198324,337.28,1.3710569105691055
15.00671040393983,1.63518,0.00195722,337.25,1.3709349593495934
15.173416073093307,1.65433,0.00203932,337.22,1.3708130081300813
15.341973632459885,1.43654,0.00177945,337.18,1.370650406504065
15.512403654209539,1.45594,0.00184548,337.17,1.370609756097561
15.684726939043165,1.42053,0.00191744,337.17,1.370609756097561
15.858964518731268,1.4506,0.00202492,337.16,1.370569105691057
16.03513765868087,1.44831,0.00187043,337.14,1.3704878048780487
16.213267860530888,1.46255,0.00180809,337.12,1.3704065040650406
16.393376864776396,1.47862,0.00160122,337.15,1.3705284552845527
16.57548665342203,1.49979,0.00120624,337.27,1.3710162601626015
16.75961945266481,1.51323,0.00124219,337.39,1.3715040650406503
16.945797735606863,1.53305,0.000560945,337.55,1.3721544715447156
17.13404422499819,1.7134,0.0,337.61,1.37239837398374
17.324381896009932,1.73244,0.0,337.61,1.37239837398374
17.5168339790385,1.75168,0.0,337.61,1.37239837398374
17.711423962540767,1.77114,0.0,337.61,1.37239837398374
17.908175595900808,1.79082,0.0,337.61,1.37239837398374
18.10711289232847,1.81071,0.0,337.61,1.37239837398374
18.308260131790135,1.83083,0.0,337.61,1.37239837398374
18.511641863972084,1.85116,0.0,337.61,1.37239837398374
18.71728291127668,1.87173,0.0,337.61,1.37239837398374
18.92520837185198,1.89252,0.0,337.61,1.37239837398374
19.135443622654865,1.91354,0.0,337.61,1.37239837398374
19.34801432254828,1.9348,0.0,337.61,1.37239837398374
19.562946415432855,1.95629,0.0,337.61,1.37239837398374
19.780266133413306,1.97803,0.0,337.61,1.37239837398374
20.000000000000004,2.0,0.0,337.61,1.37239837398374
