freq,fwhm,norm,fit_stat,redchi
1.0471285480508996,0.104713,0.0,801.31,3.2573577235772357
1.0587608285836607,0.105876,0.0,801.31,3.2573577235772357
1.070522329115862,0.107052,0.0,801.31,3.2573577235772357
1.0824144851190958,0.108241,0.0,801.31,3.2573577235772357
1.0944387480112365,0.109444,0.0,801.31,3.2573577235772357
1.1065965853335857,0.11066,0.0,801.31,3.2573577235772357
1.1188894809299823,0.111889,0.0,801.31,3.2573577235772357
1.1313189351279025,0.113132,0.0,801.31,3.2573577235772357
1.1438864649215728,0.114389,0.0,801.31,3.2573577235772357
1.1565936041571172,0.115659,0.0,801.31,3.2573577235772357
1.1694419037197599,0.116944,0.0,801.31,3.2573577235772357
1.1824329317231081,0.118243,0.0,801.31,3.2573577235772357
1.1955682737005384,0.119557,0.0,801.31,3.2573577235772357
1.2088495327987077,0.120885,0.0,801.31,3.2573577235772357
1.2222783299732152,0.122228,0.0,801.31,3.2573577235772357
1.2358563041864368,0.123586,0.0,801.31,3.2573577235772357
1.2495851126075586,0.124959,0.0,801.31,3.2573577235772357
1.2634664308148307,0.126347,0.0,801.31,3.2573577235772357
1.2775019530000689,0.12775,0.0,801.31,3.2573577235772357
1.2916933921754286,0.129169,0.0,801.31,3.2573577235772357
1.3060424803824748,0.130604,0.0,801.31,3.2573577235772357
1.3205509689035746,0.132055,0.0,801.31,3.2573577235772357
1.3352206284756383,0.133522,0.0,801.31,3.2573577235772357
1.3500532495062354,0.135005,0.0,801.31,3.2573577235772357
1.3650506422921107,0.136505,0.0,801.31,3.2573577235772357
1.3802146372401272,0.138021,0.0,801.31,3.2573577235772357
1.3955470850906657,0.139555,0.0,801.31,3.2573577235772357
1.4110498571435033,0.141105,0.0,801.31,3.2573577235772357
1.4267248454862032,0.142672,0.0,801.31,3.2573577235772357
1.4425739632250398,0.132428,0.000180846,801.3,3.2573170731707317
1.4585991447184923,0.131417,0.000633587,801.24,3.2570731707317075
1.474802345813327,0.132878,0.0021268,801.09,3.2564634146341467
1.491185544083308,0.135361,0.00142444,801.1,3.2565040650406507
1.5077507390705542,0.135863,0.00368377,800.88,3.2556097560975608
1.5244999525295826,0.137372,0.00439728,800.76,3.255121951219512
1.5414352286740576,0.142321,0.00307834,800.8,3.255284552845528
1.5585586344262863,0.146112,0.00382566,800.67,3.2547560975609753
1.5758722596694812,0.148412,0.00428386,800.53,3.2541869918699184
1.593378217502827,0.143609,0.0066686,800.18,3.252764227642276
1.6110786444993823,0.145241,0.00658634,800.15,3.252642276422764
1.6289757009668435,0.146673,0.00597011,800.31,3.253292682926829
1.6470715712112072,0.148432,0.00490818,800.61,3.254512195121951
1.6653684638033603,0.151922,0.00254569,800.96,3.2559349593495934
1.6838686118486341,0.158865,0.00226503,801.09,3.2564634146341467
1.70257427325935,0.160737,0.00197779,801.14,3.256666666666667
1.7214877310303935,0.156166,0.00166953,801.13,3.256626016260163
1.7406112935178513,0.156995,0.00284874,801.04,3.2562601626016257
1.7599472947207409,0.158665,0.00287007,801.02,3.2561788617886176
1.779498094565872,0.160408,0.00261031,801.07,3.2563821138211386
1.7992660791958721,0.162628,0.00208924,801.15,3.256707317073171
1.81925366126041,0.16418,0.00145322,801.23,3.2570325203252035
1.839463280210657,0.169188,0.000358671,801.3,3.2573170731707317
1.8598974025970172,0.170028,6.07589e-05,801.31,3.2573577235772357
1.8805585223701655,0.188056,0.0,801.31,3.2573577235772357
1.901449161185431,0.190145,0.0,801.31,3.2573577235772357
1.9225718687105604,0.192257,0.0,801.31,3.2573577235772357
1.9439292229369007,0.194393,0.0,801.31,3.2573577235772357
1.9655238304940383,0.196552,0.0,801.31,3.2573577235772357
1.9873583269679354,0.198736,0.0,801.31,3.2573577235772357
2.0094353772225966,0.200944,0.0,801.31,3.2573577235772357
2.031757675725313,0.203176,0.0,801.31,3.2573577235772357
2.0543279468755165,0.205433,0.0,801.31,3.2573577235772357
2.077148945337289,0.207715,0.0,801.31,3.2573577235772357
2.100223456375563,0.210022,0.0,801.31,3.2573577235772357
2.123554296196061,0.212355,0.0,801.31,3.2573577235772357
2.147144312289006,0.214714,0.0,801.31,3.2573577235772357
2.1709963837766555,0.2171,0.0,801.31,3.2573577235772357
2.1951134217646913,0.219511,0.0,801.31,3.2573577235772357
2.219498369697517,0.22195,0.0,801.31,3.2573577235772357
2.244154203717499,0.224415,0.0,801.31,3.2573577235772357
2.269083933028201,0.226908,0.0,801.31,3.2573577235772357
2.2942906002616517,0.229429,0.0,801.31,3.2573577235772357
2.3197772818496922,0.231978,0.0,801.31,3.2573577235772357
2.3455470883994516,0.234555,0.0,801.31,3.2573577235772357
2.371603165072989,0.23716,0.0,801.31,3.2573577235772357
2.397948691971156,0.239795,0.0,801.31,3.2573577235772357
2.424586884521724,0.242459,0.0,801.31,3.2573577235772357
2.45152099387182,0.245152,0.0,801.31,3.2573577235772357
2.478754307284725,0.247875,0.0,801.31,3.2573577235772357
2.50629014854108,0.250629,0.0,801.31,3.2573577235772357
2.5341318783445423,0.253413,0.0,801.31,3.2573577235772357
2.5622828947319634,0.256228,0.0,801.31,3.2573577235772357
2.5907466334881044,0.259075,0.0,801.31,3.2573577235772357
2.6195265685649725,0.261953,0.0,801.31,3.2573577235772357
2.648626212505812,0.264863,0.0,801.31,3.2573577235772357
2.678049116873801,0.267805,0.0,801.31,3.2573577235772357
2.7077988726855153,0.27078,0.0,801.31,3.2573577235772357
2.737879110849208,0.273788,0.0,801.31,3.2573577235772357
2.7682935026079525,0.276829,0.0,801.31,3.2573577235772357
2.7990457599877123,0.279905,0.0,801.31,3.2573577235772357
2.8301396362503914,0.283014,0.0,801.31,3.2573577235772357
2.8615789263519074,0.286158,0.0,801.31,3.2573577235772357
2.8933674674053647,0.289337,0.0,801.31,3.2573577235772357
2.9255091391493653,0.292551,0.0,801.31,3.2573577235772357
2.9580078644215257,0.295801,0.0,801.31,3.2573577235772357
2.9908676096372515,0.299087,0.0,801.31,3.2573577235772357
3.024092385273832,0.302409,0.0,801.31,3.2573577235772357
3.057686246359914,0.305769,0.0,801.31,3.2573577235772357
3.0916532929704084,0.309165,0.0,801.31,3.2573577235772357
3.1259976707269,0.3126,0.0,801.31,3.2573577235772357
3.1607235713036137,0.316072,0.0,801.31,3.2573577235772357
3.195835232938998,0.319584,0.0,801.31,3.2573577235772357
3.2313369409529997,0.323134,0.0,801.31,3.2573577235772357
3.267233028270078,0.326723,0.0,801.31,3.2573577235772357
3.3035278759480278,0.330353,0.0,801.31,3.2573577235772357
3.3402259137126866,0.334023,0.0,801.31,3.2573577235772357
3.377331620498571,0.337733,0.0,801.31,3.2573577235772357
3.4148495249955215,0.341485,0.0,801.31,3.2573577235772357
3.452784206201428,0.345278,0.0,801.31,3.2573577235772357
3.4911402939810827,0.349114,0.0,801.31,3.2573577235772357
3.52992246963125,0.352992,0.0,801.31,3.2573577235772357
3.5691354664520105,0.356914,0.0,801.31,3.2573577235772357
3.608784070324455,0.360878,0.0,801.31,3.2573577235772357
3.6488731202947875,0.364887,0.0,801.31,3.2573577235772357
3.6894075091649277,0.368941,0.0,801.31,3.2573577235772357
3.73039218408967,0.373039,0.0,801.31,3.2573577235772357
3.771832147180468,0.377183,0.0,801.31,3.2573577235772357
3.8137324561159454,0.381373,0.0,801.31,3.2573577235772357
3.856098224759168,0.38561,0.0,801.31,3.2573577235772357
3.898934623781784,0.389893,0.0,801.31,3.2573577235772357
3.9422468812951004,0.394225,0.0,801.31,3.2573577235772357
3.9860402834881605,0.398604,0.0,801.31,3.2573577235772357
4.030320175272916,0.403032,0.0,801.31,3.2573577235772357
4.075091960936564,0.407509,0.0,801.31,3.2573577235772357
4.120361104801134,0.412036,0.0,801.31,3.2573577235772357
4.166133131890395,0.416613,0.0,801.31,3.2573577235772357
4.21241362860418,0.421241,0.0,801.31,3.2573577235772357
4.259208243400194,0.425921,0.0,801.31,3.2573577235772357
4.3065226874833975,0.430652,0.0,801.31,3.2573577235772357
4.354362735503053,0.435436,0.0,801.31,3.2573577235772357
4.402734226257512,0.440273,0.0,801.31,3.2573577235772357
4.451643063406824,0.445164,0.0,801.31,3.2573577235772357
4.501095216193276,0.45011,0.0,801.31,3.2573577235772357
4.551096720169926,0.45511,0.0,801.31,3.2573577235772357
4.601653677937228,0.460165,0.0,801.31,3.2573577235772357
4.652772259887852,0.465277,0.0,801.31,3.2573577235772357
4.704458704959767,0.470446,0.0,801.31,3.2573577235772357
4.756719321397685,0.475672,0.0,801.31,3.2573577235772357
4.809560487522986,0.480956,0.0,801.31,3.2573577235772357
4.862988652512174,0.486299,0.0,801.31,3.2573577235772357
4.917010337183984,0.491701,0.0,801.31,3.2573577235772357
4.971632134795246,0.497163,0.0,801.31,3.2573577235772357
5.026860711845576,0.502686,0.0,801.31,3.2573577235772357
5.082702808891011,0.50827,0.0,801.31,3.2573577235772357
5.139165241366684,0.513917,0.0,801.31,3.2573577235772357
5.196254900418639,0.519625,0.0,801.31,3.2573577235772357
5.2539787537448746,0.525398,0.0,801.31,3.2573577235772357
5.312343846445754,0.531234,0.0,801.31,3.2573577235772357
5.371357301883837,0.537136,0.0,801.31,3.2573577235772357
5.431026322553275,0.543103,0.0,801.31,3.2573577235772357
5.491358190958871,0.549136,0.0,801.31,3.2573577235772357
5.5523602705048924,0.555236,0.0,801.31,3.2573577235772357
5.614040006393758,0.561404,0.0,801.31,3.2573577235772357
5.676404926534721,0.56764,0.0,801.31,3.2573577235772357
5.739462642462633,0.573946,0.0,801.31,3.2573577235772357
5.803220850266918,0.580322,0.0,801.31,3.2573577235772357
5.867687331530871,0.586769,0.0,801.31,3.2573577235772357
5.932869954281387,0.593287,0.0,801.31,3.2573577235772357
5.9987766739492345,0.599878,0.0,801.31,3.2573577235772357
6.065415534340013,0.606542,0.0,801.31,3.2573577235772357
6.132794668615875,0.613279,0.0,801.31,3.2573577235772357
6.200922300288177,0.620092,0.0,801.31,3.2573577235772357
6.26980674422113,0.626981,0.0,801.31,3.2573577235772357
6.33945640764663,0.633946,0.0,801.31,3.2573577235772357
6.409879791190342,0.640988,0.0,801.31,3.2573577235772357
6.481085489909176,0.648109,0.0,801.31,3.2573577235772357
6.553082194340318,0.655308,0.0,801.31,3.2573577235772357
6.625878691561884,0.662588,0.0,801.31,3.2573577235772357
6.699483866265369,0.669948,0.0,801.31,3.2573577235772357
6.773906701840011,0.677391,0.0,801.31,3.2573577235772357
6.849156281469203,0.684916,0.0,801.31,3.2573577235772357
6.925241789239067,0.692524,0.0,801.31,3.2573577235772357
7.0021725112593725,0.700217,0.0,801.31,3.2573577235772357
7.079957836796883,0.707996,0.0,801.31,3.2573577235772357
7.158607259421295,0.715861,0.0,801.31,3.2573577235772357
7.238130378163925,0.723813,0.0,801.31,3.2573577235772357
7.318536898689247,0.731854,0.0,801.31,3.2573577235772357
7.399836634479451,0.739984,0.0,801.31,3.2573577235772357
7.482039508032168,0.748204,0.0,801.31,3.2573577235772357
7.565155552071494,0.756516,0.0,801.31,3.2573577235772357
7.649194910772461,0.764919,0.0,801.31,3.2573577235772357
7.734167840999122,0.773417,0.0,801.31,3.2573577235772357
7.820084713556388,0.782008,0.0,801.31,3.2573577235772357
7.906956014455753,0.720008,0.00145986,801.28,3.2572357723577237
7.994792346195112,0.722748,0.00544375,801.03,3.2562195121951216
8.083604429052771,0.727569,0.00668448,800.69,3.254837398373984
8.173403102395827,0.735693,0.00938061,800.24,3.2530081300813007
8.264199326003121,0.743795,0.011786,799.8,3.2512195121951217
8.356004181402835,0.75204,0.0131104,799.51,3.250040650406504
8.448828873224988,0.760395,0.0132439,799.49,3.249959349593496
8.542684730568942,0.768971,0.0122297,799.76,3.2510569105691056
8.637583208386094,0.777832,0.0102698,800.22,3.2529268292682927
8.733535888877936,0.786773,0.00780911,800.7,3.254878048780488
8.830554482909648,0.812527,0.00581119,801.06,3.2563414634146337
8.928650831439386,0.944503,0.00425856,801.23,3.2570325203252035
9.027836906963444,0.960915,0.00171213,801.29,3.2572764227642277
9.128124814977493,0.996016,0.00106843,801.3,3.2573170731707317
9.229526795454028,1.0062,0.00202792,801.3,3.2573170731707317
9.332055224336228,0.879777,0.00201349,801.27,3.2571951219512196
9.435722615048434,0.850551,0.00395549,801.18,3.256829268292683
9.54054162002339,0.863533,0.00487607,801.11,3.2565447154471547
9.646525032246434,0.871854,0.00485924,801.1,3.2565040650406507
9.753685786816883,0.899451,0.00171181,801.24,3.2570731707317075
9.862036962526732,0.936636,0.000297015,801.31,3.2573577235772357
9.971591783456889,0.997159,0.0,801.31,3.2573577235772357
10.082363620591163,1.00824,0.0,801.31,3.2573577235772357
10.194365993448185,1.01944,0.0,801.31,3.2573577235772357
10.307612571731394,1.03076,0.0,801.31,3.2573577235772357
10.422117176997459,1.04221,0.0,801.31,3.2573577235772357
10.537893784343142,1.05379,0.0,801.31,3.2573577235772357
10.654956524110943,1.0655,0.0,801.31,3.2573577235772357
10.7733196836137,1.07733,0.0,801.31,3.2573577235772357
10.892997708878294,1.0893,0.0,801.31,3.2573577235772357
11.014005206408806,1.1014,0.0,801.31,3.2573577235772357
11.13635694496919,1.11364,0.0,801.31,3.2573577235772357
11.260067857385788,1.12601,0.0,801.31,3.2573577235772357
11.38515304236985,1.13852,0.0,801.31,3.2573577235772357
11.511627766360313,1.05069,0.00049478,801.3,3.2573170731707317
11.639507465387025,1.05412,0.000799461,801.29,3.2572764227642277
11.768807746954717,1.08686,0.00116157,801.28,3.2572357723577237
11.899544391947854,1.10016,0.000973742,801.29,3.2572764227642277
12.031733356556671,1.11769,0.000790653,801.3,3.2573170731707317
12.165390774224598,1.11319,0.000281929,801.31,3.2573577235772357
12.300532957617323,1.23005,0.0,801.31,3.2573577235772357
12.437176400613707,1.24372,0.0,801.31,3.2573577235772357
12.575337780318868,1.25753,0.0,801.31,3.2573577235772357
12.715033959099575,1.2715,0.0,801.31,3.2573577235772357
12.856281986642266,1.28563,0.0,801.31,3.2573577235772357
12.999099102033945,1.29991,0.0,801.31,3.2573577235772357
13.143502735866187,1.31435,0.0,801.31,3.2573577235772357
13.289510512362487,1.32895,0.0,801.31,3.2573577235772357
13.4371402515293,1.34371,0.0,801.31,3.2573577235772357
13.58640997133093,1.35864,0.0,801.31,3.2573577235772357
13.73733788988859,1.37373,0.0,801.31,3.2573577235772357
13.88994242770389,1.38899,0.0,801.31,3.2573577235772357
14.044242209907045,1.40442,0.0,801.31,3.2573577235772357
14.200256068530011,1.42003,0.0,801.31,3.2573577235772357
14.35800304480494,1.4358,0.0,801.31,3.2573577235772357
14.517502391488105,1.45175,0.0,801.31,3.2573577235772357
14.678773575209679,1.46788,0.0,801.31,3.2573577235772357
14.841836278849597,1.48418,0.0,801.31,3.2573577235772357
15.00671040393983,1.50067,0.0,801.31,3.2573577235772357
15.173416073093307,1.51734,0.0,801.31,3.2573577235772357
15.341973632459885,1.5342,0.0,801.31,3.2573577235772357
15.512403654209539,1.55124,0.0,801.31,3.2573577235772357
15.684726939043165,1.56847,0.0,801.31,3.2573577235772357
15.858964518731268,1.5859,0.0,801.31,3.2573577235772357
16.03513765868087,1.47324,0.000337777,801.31,3.2573577235772357
16.213267860530888,1.47808,0.00398395,801.23,3.2570325203252035
16.393376864776396,1.47551,0.00653804,801.11,3.2565447154471547
16.57548665342203,1.49949,0.00802618,801.03,3.2562195121951216
16.75961945266481,1.51254,0.00820586,801.02,3.2561788617886176
16.945797735606863,1.52646,0.00682007,801.11,3.2565447154471547
17.13404422499819,1.55641,0.00412779,801.25,3.2571138211382116
17.324381896009932,1.86995,0.00174647,801.31,3.2573577235772357
17.5168339790385,1.75168,0.0,801.31,3.2573577235772357
17.711423962540767,1.77114,0.0,801.31,3.2573577235772357
17.908175595900808,1.79082,0.0,801.31,3.2573577235772357
18.10711289232847,1.94384,0.00380359,801.29,3.2572764227642277
18.308260131790135,1.67634,0.00581693,801.19,3.2568699186991874
18.511641863972084,1.66965,0.00861431,801.06,3.2563414634146337
18.71728291127668,1.69549,0.0116361,800.92,3.255772357723577
18.92520837185198,1.78055,0.0144559,800.71,3.254918699186992
19.135443622654865,1.75169,0.0160712,800.4,3.2536585365853656
19.34801432254828,1.74269,0.0189337,800.01,3.252073170731707
19.562946415432855,1.76097,0.0203321,799.75,3.2510162601626016
19.780266133413306,1.78034,0.0202583,799.76,3.2510569105691056
20.000000000000004,1.80014,0.0198551,799.79,3.2511788617886177
