freq,fwhm,norm,fit_stat,redchi
1.0471285480508996,0.104713,0.0,292.25,1.1880081300813008
1.0587608285836607,0.105876,0.0,292.25,1.1880081300813008
1.070522329115862,0.107052,0.0,292.25,1.1880081300813008
1.0824144851190958,0.108241,0.0,292.25,1.1880081300813008
1.0944387480112365,0.109444,0.0,292.25,1.1880081300813008
1.1065965853335857,0.11066,0.0,292.25,1.1880081300813008
1.1188894809299823,0.111889,0.0,292.25,1.1880081300813008
1.1313189351279025,0.113132,0.0,292.25,1.1880081300813008
1.1438864649215728,0.114389,0.0,292.25,1.1880081300813008
1.1565936041571172,0.115659,0.0,292.25,1.1880081300813008
1.1694419037197599,0.116944,0.0,292.25,1.1880081300813008
1.1824329317231081,0.118243,0.0,292.25,1.1880081300813008
1.1955682737005384,0.119557,0.0,292.25,1.1880081300813008
1.2088495327987077,0.120885,0.0,292.25,1.1880081300813008
1.2222783299732152,0.122228,0.0,292.25,1.1880081300813008
1.2358563041864368,0.123586,0.0,292.25,1.1880081300813008
1.2495851126075586,0.124959,0.0,292.25,1.1880081300813008
1.2634664308148307,0.126347,0.0,292.25,1.1880081300813008
1.2775019530000689,0.12775,0.0,292.25,1.1880081300813008
1.2916933921754286,0.129169,0.0,292.25,1.1880081300813008
1.3060424803824748,0.130604,0.0,292.25,1.1880081300813008
1.3205509689035746,0.132055,0.0,292.25,1.1880081300813008
1.3352206284756383,0.133522,0.0,292.25,1.1880081300813008
1.3500532495062354,0.135005,0.0,292.25,1.1880081300813008
1.3650506422921107,0.136505,0.0,292.25,1.1880081300813008
1.3802146372401272,0.138021,0.0,292.25,1.1880081300813008
1.3955470850906657,0.139555,0.0,292.25,1.1880081300813008
1.4110498571435033,0.13218,1.25575e-06,292.25,1.1880081300813008
1.4267248454862032,0.128586,2.73059e-05,292.13,1.187520325203252
1.4425739632250398,0.130001,7.80659e-05,291.9,1.1865853658536585
1.4585991447184923,0.13194,5.07837e-05,291.94,1.1867479674796748
1.474802345813327,0.132854,7.03283e-05,291.89,1.1865447154471545
1.491185544083308,0.141431,6.5231e-05,291.98,1.1869105691056911
1.5077507390705542,0.136236,6.25129e-05,292.02,1.1870731707317073
1.5244999525295826,0.139774,5.69543e-05,292.07,1.1872764227642276
1.5414352286740576,0.143107,5.5125e-05,292.11,1.187439024390244
1.5585586344262863,0.163996,5.49243e-05,292.12,1.187479674796748
1.5758722596694812,0.167127,5.77341e-05,292.12,1.187479674796748
1.593378217502827,0.175234,6.51145e-05,292.09,1.1873577235772357
1.6110786444993823,0.177141,7.60129e-05,292.05,1.1871951219512196
1.6289757009668435,0.178499,9.05791e-05,291.96,1.1868292682926829
1.6470715712112072,0.180551,0.00011057,291.82,1.186260162601626
1.6653684638033603,0.180087,0.00014076,291.6,1.1853658536585368
1.6838686118486341,0.183327,0.00017234,291.29,1.1841056910569105
1.70257427325935,0.157039,0.000156655,290.88,1.1824390243902438
1.7214877310303935,0.154957,0.0001834,290.42,1.180569105691057
1.7406112935178513,0.158126,0.000192129,290.13,1.179390243902439
1.7599472947207409,0.158817,0.000198531,290.06,1.1791056910569107
1.779498094565872,0.161897,0.000205716,290.22,1.1797560975609758
1.7992660791958721,0.193837,0.000242355,290.36,1.1803252032520326
1.81925366126041,0.200087,0.000256876,290.44,1.180650406504065
1.839463280210657,0.202092,0.000255262,290.43,1.180609756097561
1.8598974025970172,0.203839,0.000267433,290.32,1.1801626016260163
1.8805585223701655,0.206836,0.000298413,290.1,1.179268292682927
1.901449161185431,0.20833,0.000313811,289.79,1.1780081300813008
1.9225718687105604,0.208987,0.000364574,289.49,1.1767886178861788
1.9439292229369007,0.207749,0.000361063,289.17,1.1754878048780488
1.9655238304940383,0.210568,0.000382877,288.97,1.1746747967479676
1.9873583269679354,0.218403,0.000394476,288.84,1.1741463414634146
2.0094353772225966,0.216293,0.000398086,288.8,1.1739837398373985
2.031757675725313,0.19436,0.000379652,288.88,1.174308943089431
2.0543279468755165,0.216164,0.000377913,289.15,1.1754065040650405
2.077148945337289,0.22827,0.000358374,289.51,1.176869918699187
2.100223456375563,0.231012,0.00034554,289.86,1.1782926829268294
2.123554296196061,0.233591,0.000338005,290.07,1.1791463414634147
2.147144312289006,0.235992,0.000331616,290.03,1.1789837398373983
2.1709963837766555,0.23728,0.000337469,289.8,1.1780487804878048
2.1951134217646913,0.228461,0.000336691,289.48,1.1767479674796748
2.219498369697517,0.200119,0.000323194,289.11,1.1752439024390244
2.244154203717499,0.202052,0.000339827,289.08,1.1751219512195121
2.269083933028201,0.20469,0.000337271,289.41,1.1764634146341464
2.2942906002616517,0.206933,0.000304804,289.92,1.1785365853658538
2.3197772818496922,0.245064,0.000307838,290.41,1.180528455284553
2.3455470883994516,0.257854,0.000295295,290.85,1.1823170731707318
2.371603165072989,0.25774,0.000236216,291.2,1.1837398373983739
2.397948691971156,0.261061,0.000208985,291.5,1.184959349593496
2.424586884521724,0.264127,0.000169431,291.69,1.1857317073170732
2.45152099387182,0.268933,0.000152746,291.78,1.1860975609756097
2.478754307284725,0.271692,0.000143572,291.81,1.186219512195122
2.50629014854108,0.2278,0.000134145,291.79,1.186138211382114
2.5341318783445423,0.228576,0.000124031,291.75,1.1859756097560976
2.5622828947319634,0.231974,0.000112887,291.78,1.1860975609756097
2.5907466334881044,0.233731,9.31422e-05,291.89,1.1865447154471545
2.6195265685649725,0.235796,9.08578e-05,292.0,1.1869918699186992
2.648626212505812,0.239585,5.80365e-05,292.13,1.187520325203252
2.678049116873801,0.254076,9.4472e-06,292.24,1.1879674796747968
2.7077988726855153,0.27078,0.0,292.25,1.1880081300813008
2.737879110849208,0.273788,0.0,292.25,1.1880081300813008
2.7682935026079525,0.276829,0.0,292.25,1.1880081300813008
2.7990457599877123,0.279905,0.0,292.25,1.1880081300813008
2.8301396362503914,0.283014,0.0,292.25,1.1880081300813008
2.8615789263519074,0.286158,0.0,292.25,1.1880081300813008
2.8933674674053647,0.289337,0.0,292.25,1.1880081300813008
2.9255091391493653,0.292551,0.0,292.25,1.1880081300813008
2.9580078644215257,0.295801,0.0,292.25,1.1880081300813008
2.9908676096372515,0.299087,0.0,292.25,1.1880081300813008
3.024092385273832,0.302409,0.0,292.25,1.1880081300813008
3.057686246359914,0.305769,0.0,292.25,1.1880081300813008
3.0916532929704084,0.309165,0.0,292.25,1.1880081300813008
3.1259976707269,0.3126,0.0,292.25,1.1880081300813008
3.1607235713036137,0.316072,0.0,292.25,1.1880081300813008
3.195835232938998,0.319584,0.0,292.25,1.1880081300813008
3.2313369409529997,0.323134,0.0,292.25,1.1880081300813008
3.267233028270078,0.326723,0.0,292.25,1.1880081300813008
3.3035278759480278,0.330353,0.0,292.25,1.1880081300813008
3.3402259137126866,0.334023,0.0,292.25,1.1880081300813008
3.377331620498571,0.337733,0.0,292.25,1.1880081300813008
3.4148495249955215,0.341485,0.0,292.25,1.1880081300813008
3.452784206201428,0.345278,0.0,292.25,1.1880081300813008
3.4911402939810827,0.349114,0.0,292.25,1.1880081300813008
3.52992246963125,0.352992,0.0,292.25,1.1880081300813008
3.5691354664520105,0.356914,0.0,292.25,1.1880081300813008
3.608784070324455,0.360878,0.0,292.25,1.1880081300813008
3.6488731202947875,0.364887,0.0,292.25,1.1880081300813008
3.6894075091649277,0.368941,0.0,292.25,1.1880081300813008
3.73039218408967,0.373039,0.0,292.25,1.1880081300813008
3.771832147180468,0.377183,0.0,292.25,1.1880081300813008
3.8137324561159454,0.381373,0.0,292.25,1.1880081300813008
3.856098224759168,0.38561,0.0,292.25,1.1880081300813008
3.898934623781784,0.389893,0.0,292.25,1.1880081300813008
3.9422468812951004,0.394225,0.0,292.25,1.1880081300813008
3.9860402834881605,0.398604,0.0,292.25,1.1880081300813008
4.030320175272916,0.403032,0.0,292.25,1.1880081300813008
4.075091960936564,0.407509,0.0,292.25,1.1880081300813008
4.120361104801134,0.412036,0.0,292.25,1.1880081300813008
4.166133131890395,0.416613,0.0,292.25,1.1880081300813008
4.21241362860418,0.421241,0.0,292.25,1.1880081300813008
4.259208243400194,0.425921,0.0,292.25,1.1880081300813008
4.3065226874833975,0.430652,0.0,292.25,1.1880081300813008
4.354362735503053,0.435436,0.0,292.25,1.1880081300813008
4.402734226257512,0.440273,0.0,292.25,1.1880081300813008
4.451643063406824,0.445164,0.0,292.25,1.1880081300813008
4.501095216193276,0.45011,0.0,292.25,1.1880081300813008
4.551096720169926,0.45511,0.0,292.25,1.1880081300813008
4.601653677937228,0.460165,0.0,292.25,1.1880081300813008
4.652772259887852,0.465277,0.0,292.25,1.1880081300813008
4.704458704959767,0.470446,0.0,292.25,1.1880081300813008
4.756719321397685,0.475672,0.0,292.25,1.1880081300813008
4.809560487522986,0.480956,0.0,292.25,1.1880081300813008
4.862988652512174,0.486299,0.0,292.25,1.1880081300813008
4.917010337183984,0.491701,0.0,292.25,1.1880081300813008
4.971632134795246,0.497163,0.0,292.25,1.1880081300813008
5.026860711845576,0.502686,0.0,292.25,1.1880081300813008
5.082702808891011,0.50827,0.0,292.25,1.1880081300813008
5.139165241366684,0.513917,0.0,292.25,1.1880081300813008
5.196254900418639,0.519625,0.0,292.25,1.1880081300813008
5.2539787537448746,0.525398,0.0,292.25,1.1880081300813008
5.312343846445754,0.531234,0.0,292.25,1.1880081300813008
5.371357301883837,0.537136,0.0,292.25,1.1880081300813008
5.431026322553275,0.543103,0.0,292.25,1.1880081300813008
5.491358190958871,0.549136,0.0,292.25,1.1880081300813008
5.5523602705048924,0.555236,0.0,292.25,1.1880081300813008
5.614040006393758,0.561404,0.0,292.25,1.1880081300813008
5.676404926534721,0.56764,0.0,292.25,1.1880081300813008
5.739462642462633,0.573946,0.0,292.25,1.1880081300813008
5.803220850266918,0.580322,0.0,292.25,1.1880081300813008
5.867687331530871,0.586769,0.0,292.25,1.1880081300813008
5.932869954281387,0.593287,0.0,292.25,1.1880081300813008
5.9987766739492345,0.599878,0.0,292.25,1.1880081300813008
6.065415534340013,0.606542,0.0,292.25,1.1880081300813008
6.132794668615875,0.613279,0.0,292.25,1.1880081300813008
6.200922300288177,0.620092,0.0,292.25,1.1880081300813008
6.26980674422113,0.626981,0.0,292.25,1.1880081300813008
6.33945640764663,0.633946,0.0,292.25,1.1880081300813008
6.409879791190342,0.640988,0.0,292.25,1.1880081300813008
6.481085489909176,0.648109,0.0,292.25,1.1880081300813008
6.553082194340318,0.655308,0.0,292.25,1.1880081300813008
6.625878691561884,0.662588,0.0,292.25,1.1880081300813008
6.699483866265369,0.669948,0.0,292.25,1.1880081300813008
6.773906701840011,0.677391,0.0,292.25,1.1880081300813008
6.849156281469203,0.684916,0.0,292.25,1.1880081300813008
6.925241789239067,0.692524,0.0,292.25,1.1880081300813008
7.0021725112593725,0.700217,0.0,292.25,1.1880081300813008
7.079957836796883,0.707996,0.0,292.25,1.1880081300813008
7.158607259421295,0.715861,0.0,292.25,1.1880081300813008
7.238130378163925,0.723813,0.0,292.25,1.1880081300813008
7.318536898689247,0.731854,0.0,292.25,1.1880081300813008
7.399836634479451,0.739984,0.0,292.25,1.1880081300813008
7.482039508032168,0.748204,0.0,292.25,1.1880081300813008
7.565155552071494,0.756516,0.0,292.25,1.1880081300813008
7.649194910772461,0.764919,0.0,292.25,1.1880081300813008
7.734167840999122,0.773417,0.0,292.25,1.1880081300813008
7.820084713556388,0.782008,0.0,292.25,1.1880081300813008
7.906956014455753,0.790696,0.0,292.25,1.1880081300813008
7.994792346195112,0.799479,0.0,292.25,1.1880081300813008
8.083604429052771,0.80836,0.0,292.25,1.1880081300813008
8.173403102395827,0.81734,0.0,292.25,1.1880081300813008
8.264199326003121,0.82642,0.0,292.25,1.1880081300813008
8.356004181402835,0.8356,0.0,292.25,1.1880081300813008
8.448828873224988,0.844883,0.0,292.25,1.1880081300813008
8.542684730568942,0.854268,0.0,292.25,1.1880081300813008
8.637583208386094,0.863758,0.0,292.25,1.1880081300813008
8.733535888877936,0.873354,0.0,292.25,1.1880081300813008
8.830554482909648,0.883055,0.0,292.25,1.1880081300813008
8.928650831439386,0.892865,0.0,292.25,1.1880081300813008
9.027836906963444,0.825907,5.88387e-05,292.2,1.1878048780487804
9.128124814977493,0.824324,0.00016759,291.95,1.1867886178861788
9.229526795454028,0.858277,0.000165483,291.76,1.1860162601626016
9.332055224336228,0.877755,0.000218139,291.49,1.184918699186992
9.435722615048434,0.849221,0.00029485,291.13,1.1834552845528454
9.54054162002339,0.858654,0.000300677,291.06,1.183170731707317
9.646525032246434,0.868194,0.000286551,291.13,1.1834552845528454
9.753685786816883,0.878333,0.000304712,291.31,1.1841869918699186
9.862036962526732,0.888975,0.000220514,291.71,1.1858130081300813
9.971591783456889,0.906916,4.67031e-05,292.16,1.1876422764227643
10.082363620591163,1.00824,0.0,292.25,1.1880081300813008
10.194365993448185,1.01944,0.0,292.25,1.1880081300813008
10.307612571731394,1.03076,0.0,292.25,1.1880081300813008
10.422117176997459,1.04221,0.0,292.25,1.1880081300813008
10.537893784343142,1.05379,0.0,292.25,1.1880081300813008
10.654956524110943,1.0655,0.0,292.25,1.1880081300813008
10.7733196836137,1.07733,0.0,292.25,1.1880081300813008
10.892997708878294,1.0893,0.0,292.25,1.1880081300813008
11.014005206408806,1.1014,0.0,292.25,1.1880081300813008
11.13635694496919,1.11364,0.0,292.25,1.1880081300813008
11.260067857385788,1.12601,0.0,292.25,1.1880081300813008
11.38515304236985,1.13852,0.0,292.25,1.1880081300813008
11.511627766360313,1.15116,0.0,292.25,1.1880081300813008
11.639507465387025,1.16395,0.0,292.25,1.1880081300813008
11.768807746954717,1.17688,0.0,292.25,1.1880081300813008
11.899544391947854,1.18995,0.0,292.25,1.1880081300813008
12.031733356556671,1.20317,0.0,292.25,1.1880081300813008
12.165390774224598,1.21654,0.0,292.25,1.1880081300813008
12.300532957617323,1.23005,0.0,292.25,1.1880081300813008
12.437176400613707,1.24372,0.0,292.25,1.1880081300813008
12.575337780318868,1.25753,0.0,292.25,1.1880081300813008
12.715033959099575,1.2715,0.0,292.25,1.1880081300813008
12.856281986642266,1.28563,0.0,292.25,1.1880081300813008
12.999099102033945,1.29991,0.0,292.25,1.1880081300813008
13.143502735866187,1.31435,0.0,292.25,1.1880081300813008
13.289510512362487,1.32895,0.0,292.25,1.1880081300813008
13.4371402515293,1.34371,0.0,292.25,1.1880081300813008
13.58640997133093,1.35864,0.0,292.25,1.1880081300813008
13.73733788988859,1.37373,0.0,292.25,1.1880081300813008
13.88994242770389,1.38899,0.0,292.25,1.1880081300813008
14.044242209907045,1.40442,0.0,292.25,1.1880081300813008
14.200256068530011,1.42003,0.0,292.25,1.1880081300813008
14.35800304480494,1.4358,0.0,292.25,1.1880081300813008
14.517502391488105,1.45175,0.0,292.25,1.1880081300813008
14.678773575209679,1.46788,0.0,292.25,1.1880081300813008
14.841836278849597,1.48418,0.0,292.25,1.1880081300813008
15.00671040393983,1.50067,0.0,292.25,1.1880081300813008
15.173416073093307,1.51734,0.0,292.25,1.1880081300813008
15.341973632459885,1.5342,0.0,292.25,1.1880081300813008
15.512403654209539,1.55124,0.0,292.25,1.1880081300813008
15.684726939043165,1.56847,0.0,292.25,1.1880081300813008
15.858964518731268,1.5859,0.0,292.25,1.1880081300813008
16.03513765868087,1.60351,0.0,292.25,1.1880081300813008
16.213267860530888,1.49432,4.02154e-05,292.2,1.1878048780487804
16.393376864776396,1.47752,0.000201482,291.92,1.1866666666666668
16.57548665342203,1.49466,0.00027342,291.7,1.1857723577235773
16.75961945266481,1.50853,0.000304144,291.62,1.1854471544715448
16.945797735606863,1.52521,0.000283183,291.72,1.1858536585365855
17.13404422499819,1.54376,0.000217735,291.94,1.1867479674796748
17.324381896009932,1.57922,0.000120182,292.15,1.18760162601626
17.5168339790385,1.60735,4.11524e-06,292.25,1.1880081300813008
17.711423962540767,1.77114,0.0,292.25,1.1880081300813008
17.908175595900808,1.79082,0.0,292.25,1.1880081300813008
18.10711289232847,1.81071,0.0,292.25,1.1880081300813008
18.308260131790135,1.83083,0.0,292.25,1.1880081300813008
18.511641863972084,1.85116,0.0,292.25,1.1880081300813008
18.71728291127668,1.87173,0.0,292.25,1.1880081300813008
18.92520837185198,1.89252,0.0,292.25,1.1880081300813008
19.135443622654865,1.91354,0.0,292.25,1.1880081300813008
19.34801432254828,1.9348,0.0,292.25,1.1880081300813008
19.562946415432855,1.95629,0.0,292.25,1.1880081300813008
19.780266133413306,1.97803,0.0,292.25,1.1880081300813008
20.000000000000004,2.0,0.0,292.25,1.1880081300813008
