freq,fwhm,norm,fit_stat,redchi
1.0471285480508996,0.104713,0.0,401.47,1.6319918699186993
1.0587608285836607,0.105876,0.0,401.47,1.6319918699186993
1.070522329115862,0.107052,0.0,401.47,1.6319918699186993
1.0824144851190958,0.108241,0.0,401.47,1.6319918699186993
1.0944387480112365,0.109444,0.0,401.47,1.6319918699186993
1.1065965853335857,0.11066,0.0,401.47,1.6319918699186993
1.1188894809299823,0.111889,0.0,401.47,1.6319918699186993
1.1313189351279025,0.113132,0.0,401.47,1.6319918699186993
1.1438864649215728,0.114389,0.0,401.47,1.6319918699186993
1.1565936041571172,0.115659,0.0,401.47,1.6319918699186993
1.1694419037197599,0.116944,0.0,401.47,1.6319918699186993
1.1824329317231081,0.118243,0.0,401.47,1.6319918699186993
1.1955682737005384,0.119557,0.0,401.47,1.6319918699186993
1.2088495327987077,0.120885,0.0,401.47,1.6319918699186993
1.2222783299732152,0.122228,0.0,401.47,1.6319918699186993
1.2358563041864368,0.123586,0.0,401.47,1.6319918699186993
1.2495851126075586,0.124959,0.0,401.47,1.6319918699186993
1.2634664308148307,0.126347,0.0,401.47,1.6319918699186993
1.2775019530000689,0.12775,0.0,401.47,1.6319918699186993
1.2916933921754286,0.129169,0.0,401.47,1.6319918699186993
1.3060424803824748,0.130604,0.0,401.47,1.6319918699186993
1.3205509689035746,0.132055,0.0,401.47,1.6319918699186993
1.3352206284756383,0.133522,0.0,401.47,1.6319918699186993
1.3500532495062354,0.135005,0.0,401.47,1.6319918699186993
1.3650506422921107,0.136505,0.0,401.47,1.6319918699186993
1.3802146372401272,0.138021,0.0,401.47,1.6319918699186993
1.3955470850906657,0.139555,0.0,401.47,1.6319918699186993
1.4110498571435033,0.141105,0.0,401.47,1.6319918699186993
1.4267248454862032,0.142672,0.0,401.47,1.6319918699186993
1.4425739632250398,0.144257,0.0,401.47,1.6319918699186993
1.4585991447184923,0.14586,0.0,401.47,1.6319918699186993
1.474802345813327,0.139203,2.13921e-07,401.47,1.6319918699186993
1.491185544083308,0.135212,4.11427e-06,401.41,1.6317479674796749
1.5077507390705542,0.135767,7.35371e-06,401.31,1.6313414634146342
1.5244999525295826,0.13854,9.867e-06,401.21,1.6309349593495934
1.5414352286740576,0.139329,8.64692e-06,401.16,1.6307317073170733
1.5585586344262863,0.140805,1.01675e-05,401.1,1.630487804878049
1.5758722596694812,0.14195,1.06396e-05,401.09,1.6304471544715446
1.593378217502827,0.144474,1.07769e-05,401.1,1.630487804878049
1.6110786444993823,0.14622,1.01419e-05,401.15,1.630691056910569
1.6289757009668435,0.152794,1.06279e-05,401.19,1.6308536585365854
1.6470715712112072,0.166968,1.0523e-05,401.23,1.6310162601626017
1.6653684638033603,0.176454,1.05696e-05,401.24,1.6310569105691057
1.6838686118486341,0.178935,1.06898e-05,401.23,1.6310162601626017
1.70257427325935,0.17616,1.0828e-05,401.2,1.6308943089430894
1.7214877310303935,0.159447,1.08108e-05,401.14,1.630650406504065
1.7406112935178513,0.15807,1.07567e-05,401.09,1.6304471544715446
1.7599472947207409,0.160864,1.05296e-05,401.11,1.630528455284553
1.779498094565872,0.160188,1.01358e-05,401.19,1.6308536585365854
1.7992660791958721,0.196491,9.67792e-06,401.29,1.631260162601626
1.81925366126041,0.194699,9.26153e-06,401.35,1.6315040650406505
1.839463280210657,0.197743,9.29009e-06,401.39,1.6316666666666666
1.8598974025970172,0.204106,9.61498e-06,401.38,1.6316260162601626
1.8805585223701655,0.199361,1.07969e-05,401.36,1.6315447154471545
1.901449161185431,0.200066,1.25543e-05,401.26,1.6311382113821138
1.9225718687105604,0.193727,1.42861e-05,401.1,1.630487804878049
1.9439292229369007,0.175391,1.57475e-05,400.9,1.6296747967479674
1.9655238304940383,0.178044,1.71527e-05,400.79,1.629227642276423
1.9873583269679354,0.180896,1.77767e-05,400.77,1.6291463414634146
2.0094353772225966,0.218359,2.11873e-05,400.79,1.629227642276423
2.031757675725313,0.220774,2.19182e-05,400.77,1.6291463414634146
2.0543279468755165,0.225697,2.29e-05,400.72,1.6289430894308945
2.077148945337289,0.226477,2.53512e-05,400.62,1.6285365853658538
2.100223456375563,0.227158,2.77588e-05,400.47,1.6279268292682927
2.123554296196061,0.195007,2.49409e-05,400.28,1.6271544715447153
2.147144312289006,0.193993,2.78598e-05,400.07,1.62630081300813
2.1709963837766555,0.195735,2.99729e-05,399.93,1.6257317073170732
2.1951134217646913,0.19774,2.87485e-05,399.91,1.6256504065040651
2.219498369697517,0.200092,2.72262e-05,400.02,1.6260975609756096
2.244154203717499,0.202812,2.63711e-05,400.22,1.626910569105691
2.269083933028201,0.204705,2.28458e-05,400.51,1.6280894308943088
2.2942906002616517,0.206638,1.72216e-05,400.83,1.629390243902439
2.3197772818496922,0.21192,1.31491e-05,401.11,1.630528455284553
2.3455470883994516,0.222107,9.27067e-06,401.31,1.6313414634146342
2.371603165072989,0.215839,4.64462e-06,401.42,1.631788617886179
2.397948691971156,0.226775,1.31298e-06,401.47,1.6319918699186993
2.424586884521724,0.242459,0.0,401.47,1.6319918699186993
2.45152099387182,0.245152,0.0,401.47,1.6319918699186993
2.478754307284725,0.247875,0.0,401.47,1.6319918699186993
2.50629014854108,0.250629,0.0,401.47,1.6319918699186993
2.5341318783445423,0.253413,0.0,401.47,1.6319918699186993
2.5622828947319634,0.256228,0.0,401.47,1.6319918699186993
2.5907466334881044,0.259075,0.0,401.47,1.6319918699186993
2.6195265685649725,0.261953,0.0,401.47,1.6319918699186993
2.648626212505812,0.264863,0.0,401.47,1.6319918699186993
2.678049116873801,0.267805,0.0,401.47,1.6319918699186993
2.7077988726855153,0.27078,0.0,401.47,1.6319918699186993
2.737879110849208,0.273788,0.0,401.47,1.6319918699186993
2.7682935026079525,0.276829,0.0,401.47,1.6319918699186993
2.7990457599877123,0.279905,0.0,401.47,1.6319918699186993
2.8301396362503914,0.283014,0.0,401.47,1.6319918699186993
2.8615789263519074,0.286158,0.0,401.47,1.6319918699186993
2.8933674674053647,0.289337,0.0,401.47,1.6319918699186993
2.9255091391493653,0.292551,0.0,401.47,1.6319918699186993
2.9580078644215257,0.295801,0.0,401.47,1.6319918699186993
2.9908676096372515,0.299087,0.0,401.47,1.6319918699186993
3.024092385273832,0.302409,0.0,401.47,1.6319918699186993
3.057686246359914,0.305769,0.0,401.47,1.6319918699186993
3.0916532929704084,0.309165,0.0,401.47,1.6319918699186993
3.1259976707269,0.3126,0.0,401.47,1.6319918699186993
3.1607235713036137,0.316072,0.0,401.47,1.6319918699186993
3.195835232938998,0.319584,0.0,401.47,1.6319918699186993
3.2313369409529997,0.323134,0.0,401.47,1.6319918699186993
3.267233028270078,0.326723,0.0,401.47,1.6319918699186993
3.3035278759480278,0.330353,0.0,401.47,1.6319918699186993
3.3402259137126866,0.334023,0.0,401.47,1.6319918699186993
3.377331620498571,0.316959,3.21876e-06,401.45,1.631910569105691
3.4148495249955215,0.310882,5.7772e-06,401.41,1.6317479674796749
3.452784206201428,0.315897,7.1614e-06,401.4,1.6317073170731706
3.4911402939810827,0.314861,7.70833e-06,401.4,1.6317073170731706
3.52992246963125,0.326612,5.97583e-06,401.41,1.6317479674796749
3.5691354664520105,0.329113,7.57971e-06,401.39,1.6316666666666666
3.608784070324455,0.330753,9.09476e-06,401.35,1.6315040650406505
3.6488731202947875,0.33829,1.026e-05,401.29,1.631260162601626
3.6894075091649277,0.332338,1.63214e-05,401.18,1.6308130081300813
3.73039218408967,0.337265,1.7293e-05,401.14,1.630650406504065
3.771832147180468,0.341663,1.60889e-05,401.17,1.6307723577235773
3.8137324561159454,0.344014,1.36099e-05,401.25,1.6310975609756098
3.856098224759168,0.347444,1.05421e-05,401.33,1.6314227642276422
3.898934623781784,0.356228,6.89488e-06,401.4,1.6317073170731706
3.9422468812951004,0.362062,1.072e-06,401.46,1.631951219512195
3.9860402834881605,0.398604,0.0,401.47,1.6319918699186993
4.030320175272916,0.403032,0.0,401.47,1.6319918699186993
4.075091960936564,0.407509,0.0,401.47,1.6319918699186993
4.120361104801134,0.412036,0.0,401.47,1.6319918699186993
4.166133131890395,0.416613,0.0,401.47,1.6319918699186993
4.21241362860418,0.421241,0.0,401.47,1.6319918699186993
4.259208243400194,0.425921,0.0,401.47,1.6319918699186993
4.3065226874833975,0.430652,0.0,401.47,1.6319918699186993
4.354362735503053,0.435436,0.0,401.47,1.6319918699186993
4.402734226257512,0.440273,0.0,401.47,1.6319918699186993
4.451643063406824,0.445164,0.0,401.47,1.6319918699186993
4.501095216193276,0.45011,0.0,401.47,1.6319918699186993
4.551096720169926,0.45511,0.0,401.47,1.6319918699186993
4.601653677937228,0.460165,0.0,401.47,1.6319918699186993
4.652772259887852,0.465277,0.0,401.47,1.6319918699186993
4.704458704959767,0.470446,0.0,401.47,1.6319918699186993
4.756719321397685,0.475672,0.0,401.47,1.6319918699186993
4.809560487522986,0.480956,0.0,401.47,1.6319918699186993
4.862988652512174,0.486299,0.0,401.47,1.6319918699186993
4.917010337183984,0.491701,0.0,401.47,1.6319918699186993
4.971632134795246,0.497163,0.0,401.47,1.6319918699186993
5.026860711845576,0.502686,0.0,401.47,1.6319918699186993
5.082702808891011,0.50827,0.0,401.47,1.6319918699186993
5.139165241366684,0.513917,0.0,401.47,1.6319918699186993
5.196254900418639,0.519625,0.0,401.47,1.6319918699186993
5.2539787537448746,0.525398,0.0,401.47,1.6319918699186993
5.312343846445754,0.531234,0.0,401.47,1.6319918699186993
5.371357301883837,0.537136,0.0,401.47,1.6319918699186993
5.431026322553275,0.543103,0.0,401.47,1.6319918699186993
5.491358190958871,0.549136,0.0,401.47,1.6319918699186993
5.5523602705048924,0.555236,0.0,401.47,1.6319918699186993
5.614040006393758,0.561404,0.0,401.47,1.6319918699186993
5.676404926534721,0.56764,0.0,401.47,1.6319918699186993
5.739462642462633,0.573946,0.0,401.47,1.6319918699186993
5.803220850266918,0.580322,0.0,401.47,1.6319918699186993
5.867687331530871,0.586769,0.0,401.47,1.6319918699186993
5.932869954281387,0.593287,0.0,401.47,1.6319918699186993
5.9987766739492345,0.599878,0.0,401.47,1.6319918699186993
6.065415534340013,0.547217,2.06575e-06,401.44,1.631869918699187
6.132794668615875,0.552384,2.07949e-06,401.44,1.631869918699187
6.200922300288177,0.620092,0.0,401.47,1.6319918699186993
6.26980674422113,0.626981,0.0,401.47,1.6319918699186993
6.33945640764663,0.633946,0.0,401.47,1.6319918699186993
6.409879791190342,0.640988,0.0,401.47,1.6319918699186993
6.481085489909176,0.648109,0.0,401.47,1.6319918699186993
6.553082194340318,0.655308,0.0,401.47,1.6319918699186993
6.625878691561884,0.662588,0.0,401.47,1.6319918699186993
6.699483866265369,0.669948,0.0,401.47,1.6319918699186993
6.773906701840011,0.677391,0.0,401.47,1.6319918699186993
6.849156281469203,0.620826,4.33427e-07,401.47,1.6319918699186993
6.925241789239067,0.653398,2.44112e-07,401.47,1.6319918699186993
7.0021725112593725,0.700217,0.0,401.47,1.6319918699186993
7.079957836796883,0.707996,0.0,401.47,1.6319918699186993
7.158607259421295,0.715861,0.0,401.47,1.6319918699186993
7.238130378163925,0.723813,0.0,401.47,1.6319918699186993
7.318536898689247,0.731854,0.0,401.47,1.6319918699186993
7.399836634479451,0.739984,0.0,401.47,1.6319918699186993
7.482039508032168,0.748204,0.0,401.47,1.6319918699186993
7.565155552071494,0.756516,0.0,401.47,1.6319918699186993
7.649194910772461,0.764919,0.0,401.47,1.6319918699186993
7.734167840999122,0.773417,0.0,401.47,1.6319918699186993
7.820084713556388,0.782008,0.0,401.47,1.6319918699186993
7.906956014455753,0.790696,0.0,401.47,1.6319918699186993
7.994792346195112,0.799479,0.0,401.47,1.6319918699186993
8.083604429052771,0.80836,0.0,401.47,1.6319918699186993
8.173403102395827,0.81734,0.0,401.47,1.6319918699186993
8.264199326003121,0.82642,0.0,401.47,1.6319918699186993
8.356004181402835,0.8356,0.0,401.47,1.6319918699186993
8.448828873224988,0.916721,6.92759e-07,401.47,1.6319918699186993
8.542684730568942,0.802085,6.85723e-06,401.44,1.631869918699187
8.637583208386094,0.789922,1.92152e-05,401.28,1.6312195121951218
8.733535888877936,0.787459,2.85995e-05,401.04,1.6302439024390245
8.830554482909648,0.795547,3.41637e-05,400.87,1.6295528455284554
8.928650831439386,0.804926,3.39125e-05,400.86,1.6295121951219513
9.027836906963444,0.812531,2.84971e-05,401.01,1.6301219512195122
9.128124814977493,0.821914,1.86683e-05,401.24,1.6310569105691057
9.229526795454028,0.832211,2.15758e-06,401.45,1.631910569105691
9.332055224336228,0.933206,0.0,401.47,1.6319918699186993
9.435722615048434,0.943572,0.0,401.47,1.6319918699186993
9.54054162002339,0.954054,0.0,401.47,1.6319918699186993
9.646525032246434,0.964653,0.0,401.47,1.6319918699186993
9.753685786816883,0.975369,0.0,401.47,1.6319918699186993
9.862036962526732,0.986204,0.0,401.47,1.6319918699186993
9.971591783456889,0.997159,0.0,401.47,1.6319918699186993
10.082363620591163,1.00824,0.0,401.47,1.6319918699186993
10.194365993448185,1.01944,0.0,401.47,1.6319918699186993
10.307612571731394,1.03076,0.0,401.47,1.6319918699186993
10.422117176997459,1.04221,0.0,401.47,1.6319918699186993
10.537893784343142,1.05379,0.0,401.47,1.6319918699186993
10.654956524110943,1.0655,0.0,401.47,1.6319918699186993
10.7733196836137,1.07733,0.0,401.47,1.6319918699186993
10.892997708878294,1.0893,0.0,401.47,1.6319918699186993
11.014005206408806,1.1014,0.0,401.47,1.6319918699186993
11.13635694496919,1.11364,0.0,401.47,1.6319918699186993
11.260067857385788,1.12601,0.0,401.47,1.6319918699186993
11.38515304236985,1.13852,0.0,401.47,1.6319918699186993
11.511627766360313,1.15116,0.0,401.47,1.6319918699186993
11.639507465387025,1.16395,0.0,401.47,1.6319918699186993
11.768807746954717,1.17688,0.0,401.47,1.6319918699186993
11.899544391947854,1.18995,0.0,401.47,1.6319918699186993
12.031733356556671,1.20317,0.0,401.47,1.6319918699186993
12.165390774224598,1.21654,0.0,401.47,1.6319918699186993
12.300532957617323,1.23005,0.0,401.47,1.6319918699186993
12.437176400613707,1.24372,0.0,401.47,1.6319918699186993
12.575337780318868,1.25753,0.0,401.47,1.6319918699186993
12.715033959099575,1.14921,2.62305e-07,401.47,1.6319918699186993
12.856281986642266,1.16846,1.26976e-05,401.4,1.6317073170731706
12.999099102033945,1.17672,2.245e-05,401.27,1.6311788617886178
13.143502735866187,1.18515,2.69421e-05,401.2,1.6308943089430894
13.289510512362487,1.19902,1.81158e-05,401.26,1.6311382113821138
13.4371402515293,1.2279,1.91652e-05,401.31,1.6313414634146342
13.58640997133093,1.32767,2.09086e-05,401.35,1.6315040650406505
13.73733788988859,1.33688,2.16708e-05,401.34,1.6314634146341462
13.88994242770389,1.25176,2.09584e-05,401.29,1.631260162601626
14.044242209907045,1.271,1.97461e-05,401.25,1.6310975609756098
14.200256068530011,1.28106,2.57772e-05,401.23,1.6310162601626017
14.35800304480494,1.30568,1.95213e-05,401.33,1.6314227642276422
14.517502391488105,1.30872,8.18702e-06,401.44,1.631869918699187
14.678773575209679,1.60589,6.09891e-07,401.47,1.6319918699186993
14.841836278849597,1.48418,0.0,401.47,1.6319918699186993
15.00671040393983,1.50067,0.0,401.47,1.6319918699186993
15.173416073093307,1.51734,0.0,401.47,1.6319918699186993
15.341973632459885,1.6272,1.19652e-05,401.45,1.631910569105691
15.512403654209539,1.41504,1.75165e-05,401.34,1.6314634146341462
15.684726939043165,1.4208,2.35876e-05,401.17,1.6307723577235773
15.858964518731268,1.42939,2.85912e-05,401.02,1.6301626016260162
16.03513765868087,1.44455,3.01439e-05,401.0,1.6300813008130082
16.213267860530888,1.52887,2.81033e-05,401.13,1.630609756097561
16.393376864776396,1.48929,2.59126e-05,401.23,1.6310162601626017
16.57548665342203,1.54407,2.08957e-05,401.32,1.6313821138211382
16.75961945266481,1.583,1.45376e-05,401.39,1.6316666666666666
16.945797735606863,1.58937,8.35673e-06,401.44,1.631869918699187
17.13404422499819,1.86759,3.66051e-06,401.47,1.6319918699186993
17.324381896009932,1.73244,0.0,401.47,1.6319918699186993
17.5168339790385,1.75168,0.0,401.47,1.6319918699186993
17.711423962540767,1.77114,0.0,401.47,1.6319918699186993
17.908175595900808,1.79082,0.0,401.47,1.6319918699186993
18.10711289232847,1.64017,1.00912e-06,401.47,1.6319918699186993
18.308260131790135,1.69366,2.66209e-06,401.46,1.631951219512195
18.511641863972084,1.7254,2.12789e-06,401.47,1.6319918699186993
18.71728291127668,1.87173,0.0,401.47,1.6319918699186993
18.92520837185198,1.89252,0.0,401.47,1.6319918699186993
19.135443622654865,1.91354,0.0,401.47,1.6319918699186993
19.34801432254828,1.9348,0.0,401.47,1.6319918699186993
19.562946415432855,1.95629,0.0,401.47,1.6319918699186993
19.780266133413306,1.97803,0.0,401.47,1.6319918699186993
20.000000000000004,2.0,0.0,401.47,1.6319918699186993
