freq,fwhm,norm,fit_stat,redchi
1.0471285480508996,0.0961701,5.74082e-06,225.57,0.916951219512195
1.0587608285836607,0.0973419,4.87378e-06,225.59,0.9170325203252032
1.070522329115862,0.0996672,5.93422e-06,225.6,0.9170731707317072
1.0824144851190958,0.101247,4.67265e-06,225.62,0.9171544715447154
1.0944387480112365,0.100411,2.87018e-06,225.64,0.9172357723577235
1.1065965853335857,0.102432,6.3968e-08,225.66,0.9173170731707317
1.1188894809299823,0.111889,0.0,225.66,0.9173170731707317
1.1313189351279025,0.113132,0.0,225.66,0.9173170731707317
1.1438864649215728,0.114389,0.0,225.66,0.9173170731707317
1.1565936041571172,0.115659,0.0,225.66,0.9173170731707317
1.1694419037197599,0.116944,0.0,225.66,0.9173170731707317
1.1824329317231081,0.118243,0.0,225.66,0.9173170731707317
1.1955682737005384,0.119557,0.0,225.66,0.9173170731707317
1.2088495327987077,0.120885,0.0,225.66,0.9173170731707317
1.2222783299732152,0.122228,0.0,225.66,0.9173170731707317
1.2358563041864368,0.123586,0.0,225.66,0.9173170731707317
1.2495851126075586,0.124959,0.0,225.66,0.9173170731707317
1.2634664308148307,0.126347,0.0,225.66,0.9173170731707317
1.2775019530000689,0.12775,0.0,225.66,0.9173170731707317
1.2916933921754286,0.129169,0.0,225.66,0.9173170731707317
1.3060424803824748,0.130604,0.0,225.66,0.9173170731707317
1.3205509689035746,0.132055,0.0,225.66,0.9173170731707317
1.3352206284756383,0.133522,0.0,225.66,0.9173170731707317
1.3500532495062354,0.135005,0.0,225.66,0.9173170731707317
1.3650506422921107,0.136505,0.0,225.66,0.9173170731707317
1.3802146372401272,0.138021,0.0,225.66,0.9173170731707317
1.3955470850906657,0.139555,0.0,225.66,0.9173170731707317
1.4110498571435033,0.141105,0.0,225.66,0.9173170731707317
1.4267248454862032,0.142672,0.0,225.66,0.9173170731707317
1.4425739632250398,0.144257,0.0,225.66,0.9173170731707317
1.4585991447184923,0.14586,0.0,225.66,0.9173170731707317
1.474802345813327,0.14748,0.0,225.66,0.9173170731707317
1.491185544083308,0.149119,0.0,225.66,0.9173170731707317
1.5077507390705542,0.150775,0.0,225.66,0.9173170731707317
1.5244999525295826,0.15245,0.0,225.66,0.9173170731707317
1.5414352286740576,0.154144,0.0,225.66,0.9173170731707317
1.5585586344262863,0.155856,0.0,225.66,0.9173170731707317
1.5758722596694812,0.157587,0.0,225.66,0.9173170731707317
1.593378217502827,0.159338,0.0,225.66,0.9173170731707317
1.6110786444993823,0.161108,0.0,225.66,0.9173170731707317
1.6289757009668435,0.162898,0.0,225.66,0.9173170731707317
1.6470715712112072,0.164707,0.0,225.66,0.9173170731707317
1.6653684638033603,0.166537,0.0,225.66,0.9173170731707317
1.6838686118486341,0.168387,0.0,225.66,0.9173170731707317
1.70257427325935,0.170257,0.0,225.66,0.9173170731707317
1.7214877310303935,0.172149,0.0,225.66,0.9173170731707317
1.7406112935178513,0.174061,0.0,225.66,0.9173170731707317
1.7599472947207409,0.175995,0.0,225.66,0.9173170731707317
1.779498094565872,0.17795,0.0,225.66,0.9173170731707317
1.7992660791958721,0.179927,0.0,225.66,0.9173170731707317
1.81925366126041,0.181925,0.0,225.66,0.9173170731707317
1.839463280210657,0.183946,0.0,225.66,0.9173170731707317
1.8598974025970172,0.18599,0.0,225.66,0.9173170731707317
1.8805585223701655,0.188056,0.0,225.66,0.9173170731707317
1.901449161185431,0.190145,0.0,225.66,0.9173170731707317
1.9225718687105604,0.192257,0.0,225.66,0.9173170731707317
1.9439292229369007,0.194393,0.0,225.66,0.9173170731707317
1.9655238304940383,0.196552,0.0,225.66,0.9173170731707317
1.9873583269679354,0.198736,0.0,225.66,0.9173170731707317
2.0094353772225966,0.200944,0.0,225.66,0.9173170731707317
2.031757675725313,0.203176,0.0,225.66,0.9173170731707317
2.0543279468755165,0.205433,0.0,225.66,0.9173170731707317
2.077148945337289,0.207715,0.0,225.66,0.9173170731707317
2.100223456375563,0.210022,0.0,225.66,0.9173170731707317
2.123554296196061,0.212355,0.0,225.66,0.9173170731707317
2.147144312289006,0.214714,0.0,225.66,0.9173170731707317
2.1709963837766555,0.2171,0.0,225.66,0.9173170731707317
2.1951134217646913,0.219511,0.0,225.66,0.9173170731707317
2.219498369697517,0.22195,0.0,225.66,0.9173170731707317
2.244154203717499,0.20746,1.56729e-06,225.65,0.9172764227642277
2.269083933028201,0.205172,7.3253e-06,225.6,0.9170731707317072
2.2942906002616517,0.207155,1.07581e-05,225.56,0.916910569105691
2.3197772818496922,0.209561,1.2528e-05,225.53,0.9167886178861788
2.3455470883994516,0.213506,1.1993e-05,225.54,0.9168292682926829
2.371603165072989,0.214591,9.62489e-06,225.58,0.9169918699186992
2.397948691971156,0.223358,6.6716e-06,225.62,0.9171544715447154
2.424586884521724,0.220301,4.19594e-06,225.64,0.9172357723577235
2.45152099387182,0.224424,1.15039e-06,225.65,0.9172764227642277
2.478754307284725,0.225364,8.53504e-07,225.65,0.9172764227642277
2.50629014854108,0.234317,7.52402e-09,225.66,0.9173170731707317
2.5341318783445423,0.253413,0.0,225.66,0.9173170731707317
2.5622828947319634,0.256228,0.0,225.66,0.9173170731707317
2.5907466334881044,0.259075,0.0,225.66,0.9173170731707317
2.6195265685649725,0.261953,0.0,225.66,0.9173170731707317
2.648626212505812,0.264863,0.0,225.66,0.9173170731707317
2.678049116873801,0.267805,0.0,225.66,0.9173170731707317
2.7077988726855153,0.27078,0.0,225.66,0.9173170731707317
2.737879110849208,0.273788,0.0,225.66,0.9173170731707317
2.7682935026079525,0.276829,0.0,225.66,0.9173170731707317
2.7990457599877123,0.279905,0.0,225.66,0.9173170731707317
2.8301396362503914,0.283014,0.0,225.66,0.9173170731707317
2.8615789263519074,0.286158,0.0,225.66,0.9173170731707317
2.8933674674053647,0.289337,0.0,225.66,0.9173170731707317
2.9255091391493653,0.292551,0.0,225.66,0.9173170731707317
2.9580078644215257,0.295801,0.0,225.66,0.9173170731707317
2.9908676096372515,0.299087,0.0,225.66,0.9173170731707317
3.024092385273832,0.302409,0.0,225.66,0.9173170731707317
3.057686246359914,0.305769,0.0,225.66,0.9173170731707317
3.0916532929704084,0.309165,0.0,225.66,0.9173170731707317
3.1259976707269,0.3126,0.0,225.66,0.9173170731707317
3.1607235713036137,0.316072,0.0,225.66,0.9173170731707317
3.195835232938998,0.319584,0.0,225.66,0.9173170731707317
3.2313369409529997,0.323134,0.0,225.66,0.9173170731707317
3.267233028270078,0.326723,0.0,225.66,0.9173170731707317
3.3035278759480278,0.330353,0.0,225.66,0.9173170731707317
3.3402259137126866,0.334023,0.0,225.66,0.9173170731707317
3.377331620498571,0.337733,0.0,225.66,0.9173170731707317
3.4148495249955215,0.341485,0.0,225.66,0.9173170731707317
3.452784206201428,0.345278,0.0,225.66,0.9173170731707317
3.4911402939810827,0.349114,0.0,225.66,0.9173170731707317
3.52992246963125,0.352992,0.0,225.66,0.9173170731707317
3.5691354664520105,0.356914,0.0,225.66,0.9173170731707317
3.608784070324455,0.360878,0.0,225.66,0.9173170731707317
3.6488731202947875,0.364887,0.0,225.66,0.9173170731707317
3.6894075091649277,0.368941,0.0,225.66,0.9173170731707317
3.73039218408967,0.373039,0.0,225.66,0.9173170731707317
3.771832147180468,0.377183,0.0,225.66,0.9173170731707317
3.8137324561159454,0.381373,0.0,225.66,0.9173170731707317
3.856098224759168,0.38561,0.0,225.66,0.9173170731707317
3.898934623781784,0.389893,0.0,225.66,0.9173170731707317
3.9422468812951004,0.394225,0.0,225.66,0.9173170731707317
3.9860402834881605,0.398604,0.0,225.66,0.9173170731707317
4.030320175272916,0.403032,0.0,225.66,0.9173170731707317
4.075091960936564,0.407509,0.0,225.66,0.9173170731707317
4.120361104801134,0.412036,0.0,225.66,0.9173170731707317
4.166133131890395,0.416613,0.0,225.66,0.9173170731707317
4.21241362860418,0.421241,0.0,225.66,0.9173170731707317
4.259208243400194,0.425921,0.0,225.66,0.9173170731707317
4.3065226874833975,0.430652,0.0,225.66,0.9173170731707317
4.354362735503053,0.435436,0.0,225.66,0.9173170731707317
4.402734226257512,0.440273,0.0,225.66,0.9173170731707317
4.451643063406824,0.445164,0.0,225.66,0.9173170731707317
4.501095216193276,0.45011,0.0,225.66,0.9173170731707317
4.551096720169926,0.45511,0.0,225.66,0.9173170731707317
4.601653677937228,0.414754,5.33139e-06,225.63,0.9171951219512194
4.652772259887852,0.419129,1.34399e-05,225.56,0.916910569105691
4.704458704959767,0.428391,2.31108e-05,225.44,0.9164227642276422
4.756719321397685,0.428114,2.74199e-05,225.27,0.9157317073170732
4.809560487522986,0.432885,3.81533e-05,225.03,0.9147560975609756
4.862988652512174,0.437803,4.35672e-05,224.79,0.913780487804878
4.917010337183984,0.442566,5.13443e-05,224.57,0.9128861788617886
4.971632134795246,0.456956,5.08991e-05,224.5,0.9126016260162602
5.026860711845576,0.4525,5.73025e-05,224.4,0.9121951219512195
5.082702808891011,0.459884,5.63223e-05,224.44,0.9123577235772358
5.139165241366684,0.469514,5.05761e-05,224.54,0.9127642276422764
5.196254900418639,0.473117,4.82276e-05,224.64,0.913170731707317
5.2539787537448746,0.473188,4.85489e-05,224.75,0.9136178861788617
5.312343846445754,0.478313,4.41909e-05,224.92,0.9143089430894309
5.371357301883837,0.49119,3.6919e-05,225.12,0.9151219512195122
5.431026322553275,0.489627,3.39895e-05,225.27,0.9157317073170732
5.491358190958871,0.50588,2.85712e-05,225.4,0.916260162601626
5.5523602705048924,0.514195,2.37192e-05,225.49,0.9166260162601626
5.614040006393758,0.513301,1.93276e-05,225.55,0.916869918699187
5.676404926534721,0.513094,1.50487e-05,225.58,0.9169918699186992
5.739462642462633,0.521436,1.66472e-05,225.58,0.9169918699186992
5.803220850266918,0.53131,7.50193e-06,225.6,0.9170731707317072
5.867687331530871,0.532058,4.9785e-06,225.63,0.9171951219512194
5.932869954281387,0.593287,0.0,225.66,0.9173170731707317
5.9987766739492345,0.599878,0.0,225.66,0.9173170731707317
6.065415534340013,0.606542,0.0,225.66,0.9173170731707317
6.132794668615875,0.613279,0.0,225.66,0.9173170731707317
6.200922300288177,0.620092,0.0,225.66,0.9173170731707317
6.26980674422113,0.626981,0.0,225.66,0.9173170731707317
6.33945640764663,0.633946,0.0,225.66,0.9173170731707317
6.409879791190342,0.640988,0.0,225.66,0.9173170731707317
6.481085489909176,0.648109,0.0,225.66,0.9173170731707317
6.553082194340318,0.655308,0.0,225.66,0.9173170731707317
6.625878691561884,0.662588,0.0,225.66,0.9173170731707317
6.699483866265369,0.669948,0.0,225.66,0.9173170731707317
6.773906701840011,0.677391,0.0,225.66,0.9173170731707317
6.849156281469203,0.684916,0.0,225.66,0.9173170731707317
6.925241789239067,0.692524,0.0,225.66,0.9173170731707317
7.0021725112593725,0.700217,0.0,225.66,0.9173170731707317
7.079957836796883,0.707996,0.0,225.66,0.9173170731707317
7.158607259421295,0.715861,0.0,225.66,0.9173170731707317
7.238130378163925,0.723813,0.0,225.66,0.9173170731707317
7.318536898689247,0.731854,0.0,225.66,0.9173170731707317
7.399836634479451,0.739984,0.0,225.66,0.9173170731707317
7.482039508032168,0.748204,0.0,225.66,0.9173170731707317
7.565155552071494,0.756516,0.0,225.66,0.9173170731707317
7.649194910772461,0.764919,0.0,225.66,0.9173170731707317
7.734167840999122,0.773417,0.0,225.66,0.9173170731707317
7.820084713556388,0.782008,0.0,225.66,0.9173170731707317
7.906956014455753,0.790696,0.0,225.66,0.9173170731707317
7.994792346195112,0.799479,0.0,225.66,0.9173170731707317
8.083604429052771,0.80836,0.0,225.66,0.9173170731707317
8.173403102395827,0.81734,0.0,225.66,0.9173170731707317
8.264199326003121,0.82642,0.0,225.66,0.9173170731707317
8.356004181402835,0.8356,0.0,225.66,0.9173170731707317
8.448828873224988,0.844883,0.0,225.66,0.9173170731707317
8.542684730568942,0.854268,0.0,225.66,0.9173170731707317
8.637583208386094,0.863758,0.0,225.66,0.9173170731707317
8.733535888877936,0.873354,0.0,225.66,0.9173170731707317
8.830554482909648,0.883055,0.0,225.66,0.9173170731707317
8.928650831439386,0.892865,0.0,225.66,0.9173170731707317
9.027836906963444,0.902784,0.0,225.66,0.9173170731707317
9.128124814977493,0.912812,0.0,225.66,0.9173170731707317
9.229526795454028,0.922953,0.0,225.66,0.9173170731707317
9.332055224336228,0.933206,0.0,225.66,0.9173170731707317
9.435722615048434,0.943572,0.0,225.66,0.9173170731707317
9.54054162002339,0.954054,0.0,225.66,0.9173170731707317
9.646525032246434,0.964653,0.0,225.66,0.9173170731707317
9.753685786816883,0.975369,0.0,225.66,0.9173170731707317
9.862036962526732,0.986204,0.0,225.66,0.9173170731707317
9.971591783456889,0.997159,0.0,225.66,0.9173170731707317
10.082363620591163,1.00824,0.0,225.66,0.9173170731707317
10.194365993448185,1.01944,0.0,225.66,0.9173170731707317
10.307612571731394,1.03076,0.0,225.66,0.9173170731707317
10.422117176997459,0.938149,6.51389e-06,225.61,0.9171138211382114
10.537893784343142,0.949036,3.92009e-05,225.29,0.9158130081300813
10.654956524110943,0.959079,4.89772e-05,225.16,0.9152845528455285
10.7733196836137,0.969671,4.75796e-05,225.22,0.9155284552845528
10.892997708878294,0.990882,4.20488e-05,225.35,0.9160569105691057
11.014005206408806,0.994403,3.6841e-05,225.41,0.91630081300813
11.13635694496919,1.01066,3.27946e-05,225.44,0.9164227642276422
11.260067857385788,1.02095,2.66843e-05,225.49,0.9166260162601626
11.38515304236985,1.05231,1.58229e-05,225.59,0.9170325203252032
11.511627766360313,1.08617,2.99971e-09,225.66,0.9173170731707317
11.639507465387025,1.16395,0.0,225.66,0.9173170731707317
11.768807746954717,1.17688,0.0,225.66,0.9173170731707317
11.899544391947854,1.18995,0.0,225.66,0.9173170731707317
12.031733356556671,1.20317,0.0,225.66,0.9173170731707317
12.165390774224598,1.21654,0.0,225.66,0.9173170731707317
12.300532957617323,1.23005,0.0,225.66,0.9173170731707317
12.437176400613707,1.24372,0.0,225.66,0.9173170731707317
12.575337780318868,1.25753,0.0,225.66,0.9173170731707317
12.715033959099575,1.2715,0.0,225.66,0.9173170731707317
12.856281986642266,1.28563,0.0,225.66,0.9173170731707317
12.999099102033945,1.29991,0.0,225.66,0.9173170731707317
13.143502735866187,1.31435,0.0,225.66,0.9173170731707317
13.289510512362487,1.32895,0.0,225.66,0.9173170731707317
13.4371402515293,1.34371,0.0,225.66,0.9173170731707317
13.58640997133093,1.35864,0.0,225.66,0.9173170731707317
13.73733788988859,1.37373,0.0,225.66,0.9173170731707317
13.88994242770389,1.38899,0.0,225.66,0.9173170731707317
14.044242209907045,1.27815,1.82688e-05,225.58,0.9169918699186992
14.200256068530011,1.28863,3.6614e-05,225.44,0.9164227642276422
14.35800304480494,1.29233,4.44132e-05,225.38,0.9161788617886178
14.517502391488105,1.31318,3.27708e-05,225.41,0.91630081300813
14.678773575209679,1.37508,3.39421e-05,225.42,0.9163414634146341
14.841836278849597,1.39518,3.34635e-05,225.43,0.9163821138211382
15.00671040393983,1.39041,3.02143e-05,225.45,0.9164634146341463
15.173416073093307,1.36563,2.50722e-05,225.49,0.9166260162601626
15.341973632459885,1.38687,2.64907e-05,225.56,0.916910569105691
15.512403654209539,1.47326,1.09357e-05,225.64,0.9172357723577235
15.684726939043165,1.56847,0.0,225.66,0.9173170731707317
15.858964518731268,1.5859,0.0,225.66,0.9173170731707317
16.03513765868087,1.60351,0.0,225.66,0.9173170731707317
16.213267860530888,1.62133,0.0,225.66,0.9173170731707317
16.393376864776396,1.63934,0.0,225.66,0.9173170731707317
16.57548665342203,1.65755,0.0,225.66,0.9173170731707317
16.75961945266481,1.81624,7.94498e-06,225.65,0.9172764227642277
16.945797735606863,1.82643,3.01098e-05,225.58,0.9169918699186992
17.13404422499819,1.60915,4.43452e-05,225.41,0.91630081300813
17.324381896009932,1.56185,5.69745e-05,225.14,0.9152032520325203
17.5168339790385,1.57654,6.77078e-05,224.9,0.9142276422764228
17.711423962540767,1.6045,7.63241e-05,224.79,0.913780487804878
17.908175595900808,1.64223,7.37282e-05,224.82,0.9139024390243902
18.10711289232847,1.64911,7.59918e-05,224.9,0.9142276422764228
18.308260131790135,1.65599,7.22316e-05,225.04,0.9147967479674797
18.511641863972084,1.96253,7.6372e-05,225.14,0.9152032520325203
18.71728291127668,2.05633,7.79824e-05,225.2,0.9154471544715447
18.92520837185198,2.08023,7.58458e-05,225.22,0.9155284552845528
19.135443622654865,2.09837,7.03974e-05,225.23,0.9155691056910569
19.34801432254828,2.12335,7.09441e-05,225.23,0.9155691056910569
19.562946415432855,2.14153,7.30219e-05,225.21,0.9154878048780488
19.780266133413306,2.15291,7.49808e-05,225.16,0.9152845528455285
20.000000000000004,2.1604,7.52153e-05,225.16,0.9152845528455285
