freq,fwhm,norm,fit_stat,redchi
1.0471285480508996,0.104713,0.0,342.39,1.391829268292683
1.0587608285836607,0.105876,0.0,342.39,1.391829268292683
1.070522329115862,0.107052,0.0,342.39,1.391829268292683
1.0824144851190958,0.108241,0.0,342.39,1.391829268292683
1.0944387480112365,0.109444,0.0,342.39,1.391829268292683
1.1065965853335857,0.11066,0.0,342.39,1.391829268292683
1.1188894809299823,0.111889,0.0,342.39,1.391829268292683
1.1313189351279025,0.113132,0.0,342.39,1.391829268292683
1.1438864649215728,0.114389,0.0,342.39,1.391829268292683
1.1565936041571172,0.115659,0.0,342.39,1.391829268292683
1.1694419037197599,0.116944,0.0,342.39,1.391829268292683
1.1824329317231081,0.118243,0.0,342.39,1.391829268292683
1.1955682737005384,0.119557,0.0,342.39,1.391829268292683
1.2088495327987077,0.120885,0.0,342.39,1.391829268292683
1.2222783299732152,0.122228,0.0,342.39,1.391829268292683
1.2358563041864368,0.123586,0.0,342.39,1.391829268292683
1.2495851126075586,0.124959,0.0,342.39,1.391829268292683
1.2634664308148307,0.126347,0.0,342.39,1.391829268292683
1.2775019530000689,0.12775,0.0,342.39,1.391829268292683
1.2916933921754286,0.129169,0.0,342.39,1.391829268292683
1.3060424803824748,0.130604,0.0,342.39,1.391829268292683
1.3205509689035746,0.132055,0.0,342.39,1.391829268292683
1.3352206284756383,0.133522,0.0,342.39,1.391829268292683
1.3500532495062354,0.135005,0.0,342.39,1.391829268292683
1.3650506422921107,0.136505,0.0,342.39,1.391829268292683
1.3802146372401272,0.138021,0.0,342.39,1.391829268292683
1.3955470850906657,0.139555,0.0,342.39,1.391829268292683
1.4110498571435033,0.141105,0.0,342.39,1.391829268292683
1.4267248454862032,0.142672,0.0,342.39,1.391829268292683
1.4425739632250398,0.144257,0.0,342.39,1.391829268292683
1.4585991447184923,0.14586,0.0,342.39,1.391829268292683
1.474802345813327,0.14748,0.0,342.39,1.391829268292683
1.491185544083308,0.149119,0.0,342.39,1.391829268292683
1.5077507390705542,0.150775,0.0,342.39,1.391829268292683
1.5244999525295826,0.15245,0.0,342.39,1.391829268292683
1.5414352286740576,0.154144,0.0,342.39,1.391829268292683
1.5585586344262863,0.155856,0.0,342.39,1.391829268292683
1.5758722596694812,0.157587,0.0,342.39,1.391829268292683
1.593378217502827,0.159338,0.0,342.39,1.391829268292683
1.6110786444993823,0.161108,0.0,342.39,1.391829268292683
1.6289757009668435,0.162898,0.0,342.39,1.391829268292683
1.6470715712112072,0.164707,0.0,342.39,1.391829268292683
1.6653684638033603,0.166537,0.0,342.39,1.391829268292683
1.6838686118486341,0.168387,0.0,342.39,1.391829268292683
1.70257427325935,0.170257,0.0,342.39,1.391829268292683
1.7214877310303935,0.172149,0.0,342.39,1.391829268292683
1.7406112935178513,0.174061,0.0,342.39,1.391829268292683
1.7599472947207409,0.175995,0.0,342.39,1.391829268292683
1.779498094565872,0.17795,0.0,342.39,1.391829268292683
1.7992660791958721,0.179927,0.0,342.39,1.391829268292683
1.81925366126041,0.181925,0.0,342.39,1.391829268292683
1.839463280210657,0.183946,0.0,342.39,1.391829268292683
1.8598974025970172,0.18599,0.0,342.39,1.391829268292683
1.8805585223701655,0.188056,0.0,342.39,1.391829268292683
1.901449161185431,0.190145,0.0,342.39,1.391829268292683
1.9225718687105604,0.192257,0.0,342.39,1.391829268292683
1.9439292229369007,0.194393,0.0,342.39,1.391829268292683
1.9655238304940383,0.196552,0.0,342.39,1.391829268292683
1.9873583269679354,0.198736,0.0,342.39,1.391829268292683
2.0094353772225966,0.200944,0.0,342.39,1.391829268292683
2.031757675725313,0.203176,0.0,342.39,1.391829268292683
2.0543279468755165,0.205433,0.0,342.39,1.391829268292683
2.077148945337289,0.207715,0.0,342.39,1.391829268292683
2.100223456375563,0.210022,0.0,342.39,1.391829268292683
2.123554296196061,0.212355,0.0,342.39,1.391829268292683
2.147144312289006,0.214714,0.0,342.39,1.391829268292683
2.1709963837766555,0.2171,0.0,342.39,1.391829268292683
2.1951134217646913,0.219511,0.0,342.39,1.391829268292683
2.219498369697517,0.22195,0.0,342.39,1.391829268292683
2.244154203717499,0.224415,0.0,342.39,1.391829268292683
2.269083933028201,0.226908,0.0,342.39,1.391829268292683
2.2942906002616517,0.229429,0.0,342.39,1.391829268292683
2.3197772818496922,0.231978,0.0,342.39,1.391829268292683
2.3455470883994516,0.234555,0.0,342.39,1.391829268292683
2.371603165072989,0.23716,0.0,342.39,1.391829268292683
2.397948691971156,0.239795,0.0,342.39,1.391829268292683
2.424586884521724,0.242459,0.0,342.39,1.391829268292683
2.45152099387182,0.245152,0.0,342.39,1.391829268292683
2.478754307284725,0.247875,0.0,342.39,1.391829268292683
2.50629014854108,0.250629,0.0,342.39,1.391829268292683
2.5341318783445423,0.253413,0.0,342.39,1.391829268292683
2.5622828947319634,0.256228,0.0,342.39,1.391829268292683
2.5907466334881044,0.259075,0.0,342.39,1.391829268292683
2.6195265685649725,0.261953,0.0,342.39,1.391829268292683
2.648626212505812,0.264863,0.0,342.39,1.391829268292683
2.678049116873801,0.267805,0.0,342.39,1.391829268292683
2.7077988726855153,0.27078,0.0,342.39,1.391829268292683
2.737879110849208,0.273788,0.0,342.39,1.391829268292683
2.7682935026079525,0.276829,0.0,342.39,1.391829268292683
2.7990457599877123,0.279905,0.0,342.39,1.391829268292683
2.8301396362503914,0.283014,0.0,342.39,1.391829268292683
2.8615789263519074,0.286158,0.0,342.39,1.391829268292683
2.8933674674053647,0.289337,0.0,342.39,1.391829268292683
2.9255091391493653,0.292551,0.0,342.39,1.391829268292683
2.9580078644215257,0.295801,0.0,342.39,1.391829268292683
2.9908676096372515,0.299087,0.0,342.39,1.391829268292683
3.024092385273832,0.302409,0.0,342.39,1.391829268292683
3.057686246359914,0.305769,0.0,342.39,1.391829268292683
3.0916532929704084,0.309165,0.0,342.39,1.391829268292683
3.1259976707269,0.3126,0.0,342.39,1.391829268292683
3.1607235713036137,0.316072,0.0,342.39,1.391829268292683
3.195835232938998,0.319584,0.0,342.39,1.391829268292683
3.2313369409529997,0.323134,0.0,342.39,1.391829268292683
3.267233028270078,0.326723,0.0,342.39,1.391829268292683
3.3035278759480278,0.330353,0.0,342.39,1.391829268292683
3.3402259137126866,0.334023,0.0,342.39,1.391829268292683
3.377331620498571,0.337733,0.0,342.39,1.391829268292683
3.4148495249955215,0.341485,0.0,342.39,1.391829268292683
3.452784206201428,0.345278,0.0,342.39,1.391829268292683
3.4911402939810827,0.349114,0.0,342.39,1.391829268292683
3.52992246963125,0.352992,0.0,342.39,1.391829268292683
3.5691354664520105,0.356914,0.0,342.39,1.391829268292683
3.608784070324455,0.360878,0.0,342.39,1.391829268292683
3.6488731202947875,0.364887,0.0,342.39,1.391829268292683
3.6894075091649277,0.368941,0.0,342.39,1.391829268292683
3.73039218408967,0.373039,0.0,342.39,1.391829268292683
3.771832147180468,0.377183,0.0,342.39,1.391829268292683
3.8137324561159454,0.381373,0.0,342.39,1.391829268292683
3.856098224759168,0.38561,0.0,342.39,1.391829268292683
3.898934623781784,0.389893,0.0,342.39,1.391829268292683
3.9422468812951004,0.394225,0.0,342.39,1.391829268292683
3.9860402834881605,0.398604,0.0,342.39,1.391829268292683
4.030320175272916,0.403032,0.0,342.39,1.391829268292683
4.075091960936564,0.407509,0.0,342.39,1.391829268292683
4.120361104801134,0.412036,0.0,342.39,1.391829268292683
4.166133131890395,0.416613,0.0,342.39,1.391829268292683
4.21241362860418,0.421241,0.0,342.39,1.391829268292683
4.259208243400194,0.425921,0.0,342.39,1.391829268292683
4.3065226874833975,0.430652,0.0,342.39,1.391829268292683
4.354362735503053,0.435436,0.0,342.39,1.391829268292683
4.402734226257512,0.440273,0.0,342.39,1.391829268292683
4.451643063406824,0.445164,0.0,342.39,1.391829268292683
4.501095216193276,0.45011,0.0,342.39,1.391829268292683
4.551096720169926,0.45511,0.0,342.39,1.391829268292683
4.601653677937228,0.460165,0.0,342.39,1.391829268292683
4.652772259887852,0.465277,0.0,342.39,1.391829268292683
4.704458704959767,0.470446,0.0,342.39,1.391829268292683
4.756719321397685,0.475672,0.0,342.39,1.391829268292683
4.809560487522986,0.480956,0.0,342.39,1.391829268292683
4.862988652512174,0.445326,4.39577e-05,342.39,1.391829268292683
4.917010337183984,0.491701,0.0,342.39,1.391829268292683
4.971632134795246,0.497163,0.0,342.39,1.391829268292683
5.026860711845576,0.502686,0.0,342.39,1.391829268292683
5.082702808891011,0.50827,0.0,342.39,1.391829268292683
5.139165241366684,0.513917,0.0,342.39,1.391829268292683
5.196254900418639,0.519625,0.0,342.39,1.391829268292683
5.2539787537448746,0.525398,0.0,342.39,1.391829268292683
5.312343846445754,0.531234,0.0,342.39,1.391829268292683
5.371357301883837,0.537136,0.0,342.39,1.391829268292683
5.431026322553275,0.543103,0.0,342.39,1.391829268292683
5.491358190958871,0.549136,0.0,342.39,1.391829268292683
5.5523602705048924,0.555236,0.0,342.39,1.391829268292683
5.614040006393758,0.561404,0.0,342.39,1.391829268292683
5.676404926534721,0.56764,0.0,342.39,1.391829268292683
5.739462642462633,0.573946,0.0,342.39,1.391829268292683
5.803220850266918,0.580322,0.0,342.39,1.391829268292683
5.867687331530871,0.586769,0.0,342.39,1.391829268292683
5.932869954281387,0.593287,0.0,342.39,1.391829268292683
5.9987766739492345,0.599878,0.0,342.39,1.391829268292683
6.065415534340013,0.606542,0.0,342.39,1.391829268292683
6.132794668615875,0.613279,0.0,342.39,1.391829268292683
6.200922300288177,0.620092,0.0,342.39,1.391829268292683
6.26980674422113,0.626981,0.0,342.39,1.391829268292683
6.33945640764663,0.633946,0.0,342.39,1.391829268292683
6.409879791190342,0.640988,0.0,342.39,1.391829268292683
6.481085489909176,0.648109,0.0,342.39,1.391829268292683
6.553082194340318,0.655308,0.0,342.39,1.391829268292683
6.625878691561884,0.662588,0.0,342.39,1.391829268292683
6.699483866265369,0.669948,0.0,342.39,1.391829268292683
6.773906701840011,0.677391,0.0,342.39,1.391829268292683
6.849156281469203,0.684916,0.0,342.39,1.391829268292683
6.925241789239067,0.692524,0.0,342.39,1.391829268292683
7.0021725112593725,0.700217,0.0,342.39,1.391829268292683
7.079957836796883,0.707996,0.0,342.39,1.391829268292683
7.158607259421295,0.715861,0.0,342.39,1.391829268292683
7.238130378163925,0.723813,0.0,342.39,1.391829268292683
7.318536898689247,0.731854,0.0,342.39,1.391829268292683
7.399836634479451,0.739984,0.0,342.39,1.391829268292683
7.482039508032168,0.748204,0.0,342.39,1.391829268292683
7.565155552071494,0.756516,0.0,342.39,1.391829268292683
7.649194910772461,0.764919,0.0,342.39,1.391829268292683
7.734167840999122,0.773417,0.0,342.39,1.391829268292683
7.820084713556388,0.782008,0.0,342.39,1.391829268292683
7.906956014455753,0.790696,0.0,342.39,1.391829268292683
7.994792346195112,0.799479,0.0,342.39,1.391829268292683
8.083604429052771,0.80836,0.0,342.39,1.391829268292683
8.173403102395827,0.81734,0.0,342.39,1.391829268292683
8.264199326003121,0.82642,0.0,342.39,1.391829268292683
8.356004181402835,0.8356,0.0,342.39,1.391829268292683
8.448828873224988,0.844883,0.0,342.39,1.391829268292683
8.542684730568942,0.854268,0.0,342.39,1.391829268292683
8.637583208386094,0.863758,0.0,342.39,1.391829268292683
8.733535888877936,0.873354,0.0,342.39,1.391829268292683
8.830554482909648,0.883055,0.0,342.39,1.391829268292683
8.928650831439386,0.892865,0.0,342.39,1.391829268292683
9.027836906963444,0.902784,0.0,342.39,1.391829268292683
9.128124814977493,0.912812,0.0,342.39,1.391829268292683
9.229526795454028,0.922953,0.0,342.39,1.391829268292683
9.332055224336228,0.933206,0.0,342.39,1.391829268292683
9.435722615048434,0.943572,0.0,342.39,1.391829268292683
9.54054162002339,0.954054,0.0,342.39,1.391829268292683
9.646525032246434,0.964653,0.0,342.39,1.391829268292683
9.753685786816883,0.975369,0.0,342.39,1.391829268292683
9.862036962526732,0.986204,0.0,342.39,1.391829268292683
9.971591783456889,0.997159,0.0,342.39,1.391829268292683
10.082363620591163,1.00824,0.0,342.39,1.391829268292683
10.194365993448185,1.01944,0.0,342.39,1.391829268292683
10.307612571731394,1.03076,0.0,342.39,1.391829268292683
10.422117176997459,1.04221,0.0,342.39,1.391829268292683
10.537893784343142,1.05379,0.0,342.39,1.391829268292683
10.654956524110943,1.0655,0.0,342.39,1.391829268292683
10.7733196836137,1.07733,0.0,342.39,1.391829268292683
10.892997708878294,1.0893,0.0,342.39,1.391829268292683
11.014005206408806,1.1014,0.0,342.39,1.391829268292683
11.13635694496919,1.03869,0.00116016,342.31,1.3915040650406505
11.260067857385788,1.01806,0.00409461,342.03,1.3903658536585364
11.38515304236985,1.02621,0.00477406,341.95,1.390040650406504
11.511627766360313,1.03687,0.0043326,342.07,1.3905284552845527
11.639507465387025,1.05074,0.00312916,342.24,1.391219512195122
11.768807746954717,1.10353,0.00173012,342.35,1.3916666666666668
11.899544391947854,1.12884,0.000669003,342.38,1.391788617886179
12.031733356556671,1.13926,0.000324987,342.39,1.391829268292683
12.165390774224598,1.12679,0.00072448,342.38,1.391788617886179
12.300532957617323,1.11005,0.00152976,342.35,1.3916666666666668
12.437176400613707,1.12476,0.00222142,342.3,1.3914634146341465
12.575337780318868,1.13323,0.00239735,342.29,1.3914227642276424
12.715033959099575,1.17898,0.000927472,342.35,1.3916666666666668
12.856281986642266,1.18331,0.00045727,342.38,1.391788617886179
12.999099102033945,1.29991,0.0,342.39,1.391829268292683
13.143502735866187,1.31435,0.0,342.39,1.391829268292683
13.289510512362487,1.32895,0.0,342.39,1.391829268292683
13.4371402515293,1.34371,0.0,342.39,1.391829268292683
13.58640997133093,1.35864,0.0,342.39,1.391829268292683
13.73733788988859,1.37373,0.0,342.39,1.391829268292683
13.88994242770389,1.38899,0.0,342.39,1.391829268292683
14.044242209907045,1.40442,0.0,342.39,1.391829268292683
14.200256068530011,1.42003,0.0,342.39,1.391829268292683
14.35800304480494,1.4358,0.0,342.39,1.391829268292683
14.517502391488105,1.45175,0.0,342.39,1.391829268292683
14.678773575209679,1.46788,0.0,342.39,1.391829268292683
14.841836278849597,1.48418,0.0,342.39,1.391829268292683
15.00671040393983,1.50067,0.0,342.39,1.391829268292683
15.173416073093307,1.51734,0.0,342.39,1.391829268292683
15.341973632459885,1.5342,0.0,342.39,1.391829268292683
15.512403654209539,1.55124,0.0,342.39,1.391829268292683
15.684726939043165,1.56847,0.0,342.39,1.391829268292683
15.858964518731268,1.5859,0.0,342.39,1.391829268292683
16.03513765868087,1.60351,0.0,342.39,1.391829268292683
16.213267860530888,1.62133,0.0,342.39,1.391829268292683
16.393376864776396,1.63934,0.0,342.39,1.391829268292683
16.57548665342203,1.65755,0.0,342.39,1.391829268292683
16.75961945266481,1.67596,0.0,342.39,1.391829268292683
16.945797735606863,1.69458,0.0,342.39,1.391829268292683
17.13404422499819,1.7134,0.0,342.39,1.391829268292683
17.324381896009932,1.73244,0.0,342.39,1.391829268292683
17.5168339790385,1.63666,0.00143976,342.37,1.3917479674796749
17.711423962540767,1.59498,0.00308516,342.18,1.3909756097560977
17.908175595900808,1.61277,0.0063516,341.82,1.3895121951219511
18.10711289232847,1.63057,0.00886011,341.45,1.3880081300813008
18.308260131790135,1.6484,0.0115654,341.06,1.3864227642276423
18.511641863972084,1.66657,0.013955,340.59,1.3845121951219512
18.71728291127668,1.68494,0.015519,340.11,1.382560975609756
18.92520837185198,1.7246,0.0150185,339.86,1.3815447154471545
19.135443622654865,1.72219,0.0178895,339.54,1.3802439024390245
19.34801432254828,1.74132,0.0169223,339.75,1.3810975609756098
19.562946415432855,1.76067,0.0144544,340.34,1.3834959349593494
19.780266133413306,1.78028,0.0101217,341.21,1.3870325203252032
20.000000000000004,1.80014,0.0100201,341.23,1.3871138211382115
