freq,fwhm,norm,fit_stat,redchi
1.0471285480508996,0.104713,0.0,1066.62,4.3358536585365846
1.0587608285836607,0.105876,0.0,1066.62,4.3358536585365846
1.070522329115862,0.107052,0.0,1066.62,4.3358536585365846
1.0824144851190958,0.108241,0.0,1066.62,4.3358536585365846
1.0944387480112365,0.109444,0.0,1066.62,4.3358536585365846
1.1065965853335857,0.11066,0.0,1066.62,4.3358536585365846
1.1188894809299823,0.111889,0.0,1066.62,4.3358536585365846
1.1313189351279025,0.113132,0.0,1066.62,4.3358536585365846
1.1438864649215728,0.114389,0.0,1066.62,4.3358536585365846
1.1565936041571172,0.115659,0.0,1066.62,4.3358536585365846
1.1694419037197599,0.116944,0.0,1066.62,4.3358536585365846
1.1824329317231081,0.118243,0.0,1066.62,4.3358536585365846
1.1955682737005384,0.119557,0.0,1066.62,4.3358536585365846
1.2088495327987077,0.120885,0.0,1066.62,4.3358536585365846
1.2222783299732152,0.122228,0.0,1066.62,4.3358536585365846
1.2358563041864368,0.123586,0.0,1066.62,4.3358536585365846
1.2495851126075586,0.124959,0.0,1066.62,4.3358536585365846
1.2634664308148307,0.126347,0.0,1066.62,4.3358536585365846
1.2775019530000689,0.12775,0.0,1066.62,4.3358536585365846
1.2916933921754286,0.129169,0.0,1066.62,4.3358536585365846
1.3060424803824748,0.130604,0.0,1066.62,4.3358536585365846
1.3205509689035746,0.132055,0.0,1066.62,4.3358536585365846
1.3352206284756383,0.133522,0.0,1066.62,4.3358536585365846
1.3500532495062354,0.135005,0.0,1066.62,4.3358536585365846
1.3650506422921107,0.136505,0.0,1066.62,4.3358536585365846
1.3802146372401272,0.138021,0.0,1066.62,4.3358536585365846
1.3955470850906657,0.139555,0.0,1066.62,4.3358536585365846
1.4110498571435033,0.141105,0.0,1066.62,4.3358536585365846
1.4267248454862032,0.142672,0.0,1066.62,4.3358536585365846
1.4425739632250398,0.144257,0.0,1066.62,4.3358536585365846
1.4585991447184923,0.14586,0.0,1066.62,4.3358536585365846
1.474802345813327,0.14748,0.0,1066.62,4.3358536585365846
1.491185544083308,0.149119,0.0,1066.62,4.3358536585365846
1.5077507390705542,0.150775,0.0,1066.62,4.3358536585365846
1.5244999525295826,0.15245,0.0,1066.62,4.3358536585365846
1.5414352286740576,0.154144,0.0,1066.62,4.3358536585365846
1.5585586344262863,0.155856,0.0,1066.62,4.3358536585365846
1.5758722596694812,0.157587,0.0,1066.62,4.3358536585365846
1.593378217502827,0.159338,0.0,1066.62,4.3358536585365846
1.6110786444993823,0.161108,0.0,1066.62,4.3358536585365846
1.6289757009668435,0.162898,0.0,1066.62,4.3358536585365846
1.6470715712112072,0.153482,2.63968e-05,1066.59,4.3357317073170725
1.6653684638033603,0.149937,0.000176855,1066.35,4.334756097560975
1.6838686118486341,0.15161,0.000253395,1066.14,4.33390243902439
1.70257427325935,0.153311,0.000299144,1065.95,4.333130081300813
1.7214877310303935,0.155003,0.000317851,1065.85,4.332723577235772
1.7406112935178513,0.157005,0.000306199,1065.88,4.332845528455285
1.7599472947207409,0.158588,0.000267552,1066.04,4.333495934959349
1.779498094565872,0.160584,0.000213931,1066.25,4.334349593495935
1.7992660791958721,0.163305,0.000163685,1066.41,4.335
1.81925366126041,0.163743,0.000129972,1066.48,4.335284552845528
1.839463280210657,0.165746,0.000113077,1066.5,4.335365853658536
1.8598974025970172,0.169295,5.12003e-05,1066.55,4.335569105691056
1.8805585223701655,0.169337,0.000111855,1066.49,4.335325203252032
1.901449161185431,0.171368,4.85134e-05,1066.55,4.335569105691056
1.9225718687105604,0.175571,2.50031e-05,1066.59,4.3357317073170725
1.9439292229369007,0.177968,4.17091e-07,1066.62,4.3358536585365846
1.9655238304940383,0.196552,0.0,1066.62,4.3358536585365846
1.9873583269679354,0.198736,0.0,1066.62,4.3358536585365846
2.0094353772225966,0.200944,0.0,1066.62,4.3358536585365846
2.031757675725313,0.203176,0.0,1066.62,4.3358536585365846
2.0543279468755165,0.205433,0.0,1066.62,4.3358536585365846
2.077148945337289,0.207715,0.0,1066.62,4.3358536585365846
2.100223456375563,0.210022,0.0,1066.62,4.3358536585365846
2.123554296196061,0.212355,0.0,1066.62,4.3358536585365846
2.147144312289006,0.214714,0.0,1066.62,4.3358536585365846
2.1709963837766555,0.2171,0.0,1066.62,4.3358536585365846
2.1951134217646913,0.219511,0.0,1066.62,4.3358536585365846
2.219498369697517,0.22195,0.0,1066.62,4.3358536585365846
2.244154203717499,0.224415,0.0,1066.62,4.3358536585365846
2.269083933028201,0.226908,0.0,1066.62,4.3358536585365846
2.2942906002616517,0.229429,0.0,1066.62,4.3358536585365846
2.3197772818496922,0.231978,0.0,1066.62,4.3358536585365846
2.3455470883994516,0.234555,0.0,1066.62,4.3358536585365846
2.371603165072989,0.23716,0.0,1066.62,4.3358536585365846
2.397948691971156,0.239795,0.0,1066.62,4.3358536585365846
2.424586884521724,0.242459,0.0,1066.62,4.3358536585365846
2.45152099387182,0.245152,0.0,1066.62,4.3358536585365846
2.478754307284725,0.247875,0.0,1066.62,4.3358536585365846
2.50629014854108,0.250629,0.0,1066.62,4.3358536585365846
2.5341318783445423,0.253413,0.0,1066.62,4.3358536585365846
2.5622828947319634,0.256228,0.0,1066.62,4.3358536585365846
2.5907466334881044,0.259075,0.0,1066.62,4.3358536585365846
2.6195265685649725,0.261953,0.0,1066.62,4.3358536585365846
2.648626212505812,0.264863,0.0,1066.62,4.3358536585365846
2.678049116873801,0.267805,0.0,1066.62,4.3358536585365846
2.7077988726855153,0.27078,0.0,1066.62,4.3358536585365846
2.737879110849208,0.273788,0.0,1066.62,4.3358536585365846
2.7682935026079525,0.276829,0.0,1066.62,4.3358536585365846
2.7990457599877123,0.279905,0.0,1066.62,4.3358536585365846
2.8301396362503914,0.283014,0.0,1066.62,4.3358536585365846
2.8615789263519074,0.286158,0.0,1066.62,4.3358536585365846
2.8933674674053647,0.289337,0.0,1066.62,4.3358536585365846
2.9255091391493653,0.292551,0.0,1066.62,4.3358536585365846
2.9580078644215257,0.295801,0.0,1066.62,4.3358536585365846
2.9908676096372515,0.299087,0.0,1066.62,4.3358536585365846
3.024092385273832,0.302409,0.0,1066.62,4.3358536585365846
3.057686246359914,0.305769,0.0,1066.62,4.3358536585365846
3.0916532929704084,0.309165,0.0,1066.62,4.3358536585365846
3.1259976707269,0.3126,0.0,1066.62,4.3358536585365846
3.1607235713036137,0.316072,0.0,1066.62,4.3358536585365846
3.195835232938998,0.319584,0.0,1066.62,4.3358536585365846
3.2313369409529997,0.323134,0.0,1066.62,4.3358536585365846
3.267233028270078,0.326723,0.0,1066.62,4.3358536585365846
3.3035278759480278,0.330353,0.0,1066.62,4.3358536585365846
3.3402259137126866,0.334023,0.0,1066.62,4.3358536585365846
3.377331620498571,0.337733,0.0,1066.62,4.3358536585365846
3.4148495249955215,0.341485,0.0,1066.62,4.3358536585365846
3.452784206201428,0.345278,0.0,1066.62,4.3358536585365846
3.4911402939810827,0.349114,0.0,1066.62,4.3358536585365846
3.52992246963125,0.352992,0.0,1066.62,4.3358536585365846
3.5691354664520105,0.356914,0.0,1066.62,4.3358536585365846
3.608784070324455,0.360878,0.0,1066.62,4.3358536585365846
3.6488731202947875,0.364887,0.0,1066.62,4.3358536585365846
3.6894075091649277,0.368941,0.0,1066.62,4.3358536585365846
3.73039218408967,0.373039,0.0,1066.62,4.3358536585365846
3.771832147180468,0.377183,0.0,1066.62,4.3358536585365846
3.8137324561159454,0.381373,0.0,1066.62,4.3358536585365846
3.856098224759168,0.38561,0.0,1066.62,4.3358536585365846
3.898934623781784,0.389893,0.0,1066.62,4.3358536585365846
3.9422468812951004,0.394225,0.0,1066.62,4.3358536585365846
3.9860402834881605,0.398604,0.0,1066.62,4.3358536585365846
4.030320175272916,0.403032,0.0,1066.62,4.3358536585365846
4.075091960936564,0.407509,0.0,1066.62,4.3358536585365846
4.120361104801134,0.412036,0.0,1066.62,4.3358536585365846
4.166133131890395,0.416613,0.0,1066.62,4.3358536585365846
4.21241362860418,0.421241,0.0,1066.62,4.3358536585365846
4.259208243400194,0.425921,0.0,1066.62,4.3358536585365846
4.3065226874833975,0.430652,0.0,1066.62,4.3358536585365846
4.354362735503053,0.435436,0.0,1066.62,4.3358536585365846
4.402734226257512,0.440273,0.0,1066.62,4.3358536585365846
4.451643063406824,0.445164,0.0,1066.62,4.3358536585365846
4.501095216193276,0.45011,0.0,1066.62,4.3358536585365846
4.551096720169926,0.45511,0.0,1066.62,4.3358536585365846
4.601653677937228,0.460165,0.0,1066.62,4.3358536585365846
4.652772259887852,0.465277,0.0,1066.62,4.3358536585365846
4.704458704959767,0.470446,0.0,1066.62,4.3358536585365846
4.756719321397685,0.475672,0.0,1066.62,4.3358536585365846
4.809560487522986,0.453412,8.21267e-05,1066.59,4.3357317073170725
4.862988652512174,0.44582,0.000179494,1066.51,4.33540650406504
4.917010337183984,0.443393,0.000285999,1066.38,4.334878048780488
4.971632134795246,0.449863,0.000388502,1066.23,4.334268292682927
5.026860711845576,0.452629,0.000474912,1066.07,4.333617886178861
5.082702808891011,0.459051,0.000532693,1065.95,4.333130081300813
5.139165241366684,0.462526,0.00043659,1065.93,4.333048780487805
5.196254900418639,0.467668,0.000430732,1065.91,4.332967479674797
5.2539787537448746,0.474211,0.000534258,1065.89,4.332886178861789
5.312343846445754,0.478445,0.000471137,1066.02,4.333414634146341
5.371357301883837,0.483641,0.000365513,1066.23,4.334268292682927
5.431026322553275,0.489745,0.000227342,1066.46,4.33520325203252
5.491358190958871,0.508695,8.3782e-05,1066.6,4.3357723577235765
5.5523602705048924,0.555236,0.0,1066.62,4.3358536585365846
5.614040006393758,0.561404,0.0,1066.62,4.3358536585365846
5.676404926534721,0.56764,0.0,1066.62,4.3358536585365846
5.739462642462633,0.573946,0.0,1066.62,4.3358536585365846
5.803220850266918,0.580322,0.0,1066.62,4.3358536585365846
5.867687331530871,0.586769,0.0,1066.62,4.3358536585365846
5.932869954281387,0.593287,0.0,1066.62,4.3358536585365846
5.9987766739492345,0.599878,0.0,1066.62,4.3358536585365846
6.065415534340013,0.606542,0.0,1066.62,4.3358536585365846
6.132794668615875,0.613279,0.0,1066.62,4.3358536585365846
6.200922300288177,0.620092,0.0,1066.62,4.3358536585365846
6.26980674422113,0.626981,0.0,1066.62,4.3358536585365846
6.33945640764663,0.633946,0.0,1066.62,4.3358536585365846
6.409879791190342,0.640988,0.0,1066.62,4.3358536585365846
6.481085489909176,0.648109,0.0,1066.62,4.3358536585365846
6.553082194340318,0.655308,0.0,1066.62,4.3358536585365846
6.625878691561884,0.662588,0.0,1066.62,4.3358536585365846
6.699483866265369,0.669948,0.0,1066.62,4.3358536585365846
6.773906701840011,0.677391,0.0,1066.62,4.3358536585365846
6.849156281469203,0.684916,0.0,1066.62,4.3358536585365846
6.925241789239067,0.692524,0.0,1066.62,4.3358536585365846
7.0021725112593725,0.700217,0.0,1066.62,4.3358536585365846
7.079957836796883,0.707996,0.0,1066.62,4.3358536585365846
7.158607259421295,0.715861,0.0,1066.62,4.3358536585365846
7.238130378163925,0.723813,0.0,1066.62,4.3358536585365846
7.318536898689247,0.731854,0.0,1066.62,4.3358536585365846
7.399836634479451,0.739984,0.0,1066.62,4.3358536585365846
7.482039508032168,0.748204,0.0,1066.62,4.3358536585365846
7.565155552071494,0.756516,0.0,1066.62,4.3358536585365846
7.649194910772461,0.764919,0.0,1066.62,4.3358536585365846
7.734167840999122,0.773417,0.0,1066.62,4.3358536585365846
7.820084713556388,0.782008,0.0,1066.62,4.3358536585365846
7.906956014455753,0.790696,0.0,1066.62,4.3358536585365846
7.994792346195112,0.799479,0.0,1066.62,4.3358536585365846
8.083604429052771,0.80836,0.0,1066.62,4.3358536585365846
8.173403102395827,0.81734,0.0,1066.62,4.3358536585365846
8.264199326003121,0.82642,0.0,1066.62,4.3358536585365846
8.356004181402835,0.8356,0.0,1066.62,4.3358536585365846
8.448828873224988,0.844883,0.0,1066.62,4.3358536585365846
8.542684730568942,0.854268,0.0,1066.62,4.3358536585365846
8.637583208386094,0.863758,0.0,1066.62,4.3358536585365846
8.733535888877936,0.873354,0.0,1066.62,4.3358536585365846
8.830554482909648,0.883055,0.0,1066.62,4.3358536585365846
8.928650831439386,0.892865,0.0,1066.62,4.3358536585365846
9.027836906963444,0.902784,0.0,1066.62,4.3358536585365846
9.128124814977493,0.912812,0.0,1066.62,4.3358536585365846
9.229526795454028,0.922953,0.0,1066.62,4.3358536585365846
9.332055224336228,0.933206,0.0,1066.62,4.3358536585365846
9.435722615048434,0.943572,0.0,1066.62,4.3358536585365846
9.54054162002339,0.877143,7.79559e-05,1066.58,4.335691056910568
9.646525032246434,0.870802,0.000324477,1066.41,4.335
9.753685786816883,0.880262,0.000424045,1066.3,4.334552845528455
9.862036962526732,0.889288,0.00048648,1066.22,4.3342276422764225
9.971591783456889,0.897902,0.000504655,1066.19,4.3341056910569105
10.082363620591163,0.911844,0.000468674,1066.24,4.334308943089431
10.194365993448185,0.925059,0.000371814,1066.37,4.334837398373983
10.307612571731394,0.948944,0.000196844,1066.54,4.335528455284552
10.422117176997459,1.04221,0.0,1066.62,4.3358536585365846
10.537893784343142,1.05379,0.0,1066.62,4.3358536585365846
10.654956524110943,1.0655,0.0,1066.62,4.3358536585365846
10.7733196836137,1.07733,0.0,1066.62,4.3358536585365846
10.892997708878294,1.0893,0.0,1066.62,4.3358536585365846
11.014005206408806,1.1014,0.0,1066.62,4.3358536585365846
11.13635694496919,1.11364,0.0,1066.62,4.3358536585365846
11.260067857385788,1.04211,2.77226e-05,1066.61,4.3358130081300805
11.38515304236985,1.04754,7.61035e-05,1066.58,4.335691056910568
11.511627766360313,1.05708,0.000102787,1066.55,4.335569105691056
11.639507465387025,1.05376,7.89948e-05,1066.58,4.335691056910568
11.768807746954717,1.17688,0.0,1066.62,4.3358536585365846
11.899544391947854,1.18995,0.0,1066.62,4.3358536585365846
12.031733356556671,1.20317,0.0,1066.62,4.3358536585365846
12.165390774224598,1.21654,0.0,1066.62,4.3358536585365846
12.300532957617323,1.23005,0.0,1066.62,4.3358536585365846
12.437176400613707,1.24372,0.0,1066.62,4.3358536585365846
12.575337780318868,1.25753,0.0,1066.62,4.3358536585365846
12.715033959099575,1.2715,0.0,1066.62,4.3358536585365846
12.856281986642266,1.28563,0.0,1066.62,4.3358536585365846
12.999099102033945,1.29991,0.0,1066.62,4.3358536585365846
13.143502735866187,1.31435,0.0,1066.62,4.3358536585365846
13.289510512362487,1.32895,0.0,1066.62,4.3358536585365846
13.4371402515293,1.34371,0.0,1066.62,4.3358536585365846
13.58640997133093,1.35864,0.0,1066.62,4.3358536585365846
13.73733788988859,1.37373,0.0,1066.62,4.3358536585365846
13.88994242770389,1.38899,0.0,1066.62,4.3358536585365846
14.044242209907045,1.40442,0.0,1066.62,4.3358536585365846
14.200256068530011,1.42003,0.0,1066.62,4.3358536585365846
14.35800304480494,1.4358,0.0,1066.62,4.3358536585365846
14.517502391488105,1.45175,0.0,1066.62,4.3358536585365846
14.678773575209679,1.46788,0.0,1066.62,4.3358536585365846
14.841836278849597,1.48418,0.0,1066.62,4.3358536585365846
15.00671040393983,1.50067,0.0,1066.62,4.3358536585365846
15.173416073093307,1.51734,0.0,1066.62,4.3358536585365846
15.341973632459885,1.5342,0.0,1066.62,4.3358536585365846
15.512403654209539,1.55124,0.0,1066.62,4.3358536585365846
15.684726939043165,1.56847,0.0,1066.62,4.3358536585365846
15.858964518731268,1.5859,0.0,1066.62,4.3358536585365846
16.03513765868087,1.60351,0.0,1066.62,4.3358536585365846
16.213267860530888,1.62133,0.0,1066.62,4.3358536585365846
16.393376864776396,1.63934,0.0,1066.62,4.3358536585365846
16.57548665342203,1.65755,0.0,1066.62,4.3358536585365846
16.75961945266481,1.67596,0.0,1066.62,4.3358536585365846
16.945797735606863,1.69458,0.0,1066.62,4.3358536585365846
17.13404422499819,1.7134,0.0,1066.62,4.3358536585365846
17.324381896009932,1.73244,0.0,1066.62,4.3358536585365846
17.5168339790385,1.75168,0.0,1066.62,4.3358536585365846
17.711423962540767,1.77114,0.0,1066.62,4.3358536585365846
17.908175595900808,1.79082,0.0,1066.62,4.3358536585365846
18.10711289232847,1.81071,0.0,1066.62,4.3358536585365846
18.308260131790135,1.83083,0.0,1066.62,4.3358536585365846
18.511641863972084,1.85116,0.0,1066.62,4.3358536585365846
18.71728291127668,1.87173,0.0,1066.62,4.3358536585365846
18.92520837185198,1.89252,0.0,1066.62,4.3358536585365846
19.135443622654865,1.91354,0.0,1066.62,4.3358536585365846
19.34801432254828,1.9348,0.0,1066.62,4.3358536585365846
19.562946415432855,1.95629,0.0,1066.62,4.3358536585365846
19.780266133413306,1.97803,0.0,1066.62,4.3358536585365846
20.000000000000004,2.0,0.0,1066.62,4.3358536585365846
