freq,fwhm,norm,fit_stat,redchi
1.0471285480508996,0.115183,0.00429052,344.0,1.3983739837398375
1.0587608285836607,0.116464,0.00479013,345.23,1.4033739837398376
1.070522329115862,0.117757,0.0047552,346.06,1.4067479674796748
1.0824144851190958,0.119065,0.00472055,347.0,1.410569105691057
1.0944387480112365,0.120388,0.00463756,348.04,1.4147967479674797
1.1065965853335857,0.121693,0.00377934,348.73,1.4176016260162603
1.1188894809299823,0.123069,0.00368305,349.78,1.4218699186991868
1.1313189351279025,0.123294,0.00350617,350.81,1.4260569105691057
1.1438864649215728,0.12582,0.0030193,351.47,1.4287398373983742
1.1565936041571172,0.127224,0.00284245,352.24,1.431869918699187
1.1694419037197599,0.128616,0.00262824,352.89,1.4345121951219513
1.1824329317231081,0.130059,0.00246669,353.34,1.436341463414634
1.1955682737005384,0.131433,0.00241751,353.56,1.4372357723577236
1.2088495327987077,0.132726,0.002472,353.6,1.43739837398374
1.2222783299732152,0.13433,0.00255767,353.54,1.4371544715447155
1.2358563041864368,0.135933,0.00270786,353.58,1.4373170731707317
1.2495851126075586,0.137442,0.00291546,353.87,1.4384959349593496
1.2634664308148307,0.138922,0.00283157,354.31,1.4402845528455284
1.2775019530000689,0.140504,0.00247412,354.86,1.4425203252032521
1.2916933921754286,0.141983,0.00214241,355.49,1.4450813008130081
1.3060424803824748,0.143662,0.00211638,356.09,1.447520325203252
1.3205509689035746,0.14518,0.00173051,356.42,1.4488617886178863
1.3352206284756383,0.146854,0.00161744,356.68,1.449918699186992
1.3500532495062354,0.148415,0.00154307,356.84,1.4505691056910568
1.3650506422921107,0.150079,0.00145621,356.93,1.4509349593495935
1.3802146372401272,0.151822,0.00138902,357.01,1.451260162601626
1.3955470850906657,0.153072,0.00133366,357.08,1.4515447154471544
1.4110498571435033,0.151856,0.00135062,357.17,1.451910569105691
1.4267248454862032,0.156706,0.00124536,357.24,1.4521951219512195
1.4425739632250398,0.158473,0.00123286,357.37,1.4527235772357723
1.4585991447184923,0.141876,0.000951204,357.49,1.4532113821138213
1.474802345813327,0.133959,0.000713114,357.63,1.4537804878048781
1.491185544083308,0.139017,0.000620957,357.77,1.454349593495935
1.5077507390705542,0.141535,0.000419731,357.9,1.4548780487804878
1.5244999525295826,0.14258,0.000201455,358.0,1.4552845528455285
1.5414352286740576,0.142681,3.21913e-05,358.04,1.4554471544715448
1.5585586344262863,0.155856,0.0,358.04,1.4554471544715448
1.5758722596694812,0.157587,0.0,358.04,1.4554471544715448
1.593378217502827,0.159338,0.0,358.04,1.4554471544715448
1.6110786444993823,0.161108,0.0,358.04,1.4554471544715448
1.6289757009668435,0.162898,0.0,358.04,1.4554471544715448
1.6470715712112072,0.164707,0.0,358.04,1.4554471544715448
1.6653684638033603,0.166537,0.0,358.04,1.4554471544715448
1.6838686118486341,0.168387,0.0,358.04,1.4554471544715448
1.70257427325935,0.170257,0.0,358.04,1.4554471544715448
1.7214877310303935,0.172149,0.0,358.04,1.4554471544715448
1.7406112935178513,0.174061,0.0,358.04,1.4554471544715448
1.7599472947207409,0.175995,0.0,358.04,1.4554471544715448
1.779498094565872,0.17795,0.0,358.04,1.4554471544715448
1.7992660791958721,0.179927,0.0,358.04,1.4554471544715448
1.81925366126041,0.181925,0.0,358.04,1.4554471544715448
1.839463280210657,0.183946,0.0,358.04,1.4554471544715448
1.8598974025970172,0.18599,0.0,358.04,1.4554471544715448
1.8805585223701655,0.188056,0.0,358.04,1.4554471544715448
1.901449161185431,0.190145,0.0,358.04,1.4554471544715448
1.9225718687105604,0.192257,0.0,358.04,1.4554471544715448
1.9439292229369007,0.194393,0.0,358.04,1.4554471544715448
1.9655238304940383,0.196552,0.0,358.04,1.4554471544715448
1.9873583269679354,0.198736,0.0,358.04,1.4554471544715448
2.0094353772225966,0.200944,0.0,358.04,1.4554471544715448
2.031757675725313,0.203176,0.0,358.04,1.4554471544715448
2.0543279468755165,0.186184,2.80841e-05,358.03,1.4554065040650406
2.077148945337289,0.187166,0.000141368,357.99,1.4552439024390245
2.100223456375563,0.189081,0.000477146,357.87,1.4547560975609757
2.123554296196061,0.191321,0.0005765,357.83,1.4545934959349593
2.147144312289006,0.193782,0.000597981,357.83,1.4545934959349593
2.1709963837766555,0.196028,0.000290397,357.91,1.454918699186992
2.1951134217646913,0.197872,0.000486177,357.88,1.4547967479674797
2.219498369697517,0.2026,0.00040603,357.92,1.454959349593496
2.244154203717499,0.204172,0.000301674,357.95,1.4550813008130081
2.269083933028201,0.207159,6.39577e-05,358.02,1.4553658536585365
2.2942906002616517,0.229429,0.0,358.04,1.4554471544715448
2.3197772818496922,0.231978,0.0,358.04,1.4554471544715448
2.3455470883994516,0.234555,0.0,358.04,1.4554471544715448
2.371603165072989,0.23716,0.0,358.04,1.4554471544715448
2.397948691971156,0.239795,0.0,358.04,1.4554471544715448
2.424586884521724,0.242459,0.0,358.04,1.4554471544715448
2.45152099387182,0.245152,0.0,358.04,1.4554471544715448
2.478754307284725,0.247875,0.0,358.04,1.4554471544715448
2.50629014854108,0.250629,0.0,358.04,1.4554471544715448
2.5341318783445423,0.253413,0.0,358.04,1.4554471544715448
2.5622828947319634,0.256228,0.0,358.04,1.4554471544715448
2.5907466334881044,0.259075,0.0,358.04,1.4554471544715448
2.6195265685649725,0.261953,0.0,358.04,1.4554471544715448
2.648626212505812,0.264863,0.0,358.04,1.4554471544715448
2.678049116873801,0.267805,0.0,358.04,1.4554471544715448
2.7077988726855153,0.27078,0.0,358.04,1.4554471544715448
2.737879110849208,0.273788,0.0,358.04,1.4554471544715448
2.7682935026079525,0.276829,0.0,358.04,1.4554471544715448
2.7990457599877123,0.279905,0.0,358.04,1.4554471544715448
2.8301396362503914,0.283014,0.0,358.04,1.4554471544715448
2.8615789263519074,0.286158,0.0,358.04,1.4554471544715448
2.8933674674053647,0.289337,0.0,358.04,1.4554471544715448
2.9255091391493653,0.292551,0.0,358.04,1.4554471544715448
2.9580078644215257,0.295801,0.0,358.04,1.4554471544715448
2.9908676096372515,0.299087,0.0,358.04,1.4554471544715448
3.024092385273832,0.302409,0.0,358.04,1.4554471544715448
3.057686246359914,0.305769,0.0,358.04,1.4554471544715448
3.0916532929704084,0.309165,0.0,358.04,1.4554471544715448
3.1259976707269,0.3126,0.0,358.04,1.4554471544715448
3.1607235713036137,0.293168,1.54883e-06,358.04,1.4554471544715448
3.195835232938998,0.303007,8.388e-05,358.03,1.4554065040650406
3.2313369409529997,0.294982,0.000243761,357.99,1.4552439024390245
3.267233028270078,0.295592,0.000240729,357.99,1.4552439024390245
3.3035278759480278,0.310828,0.000175778,358.02,1.4553658536585365
3.3402259137126866,0.31506,8.8805e-05,358.04,1.4554471544715448
3.377331620498571,0.359555,2.08676e-05,358.04,1.4554471544715448
3.4148495249955215,0.373843,2.1071e-05,358.04,1.4554471544715448
3.452784206201428,0.365928,0.000143141,358.03,1.4554065040650406
3.4911402939810827,0.381105,0.000533052,357.97,1.4551626016260164
3.52992246963125,0.354701,0.00080713,357.8,1.4544715447154473
3.5691354664520105,0.321269,0.00112443,357.45,1.4530487804878047
3.608784070324455,0.326607,0.00144372,356.97,1.4510975609756098
3.6488731202947875,0.328412,0.00183094,356.35,1.4485772357723579
3.6894075091649277,0.332057,0.0021453,355.77,1.4462195121951218
3.73039218408967,0.335735,0.00220535,355.55,1.4453252032520325
3.771832147180468,0.339465,0.00194798,355.92,1.446829268292683
3.8137324561159454,0.343236,0.00139367,356.74,1.4501626016260163
3.856098224759168,0.347314,0.000734964,357.57,1.4535365853658537
3.898934623781784,0.35274,0.000323857,357.98,1.4552032520325204
3.9422468812951004,0.394225,0.0,358.04,1.4554471544715448
3.9860402834881605,0.398604,0.0,358.04,1.4554471544715448
4.030320175272916,0.403032,0.0,358.04,1.4554471544715448
4.075091960936564,0.407509,0.0,358.04,1.4554471544715448
4.120361104801134,0.412036,0.0,358.04,1.4554471544715448
4.166133131890395,0.416613,0.0,358.04,1.4554471544715448
4.21241362860418,0.421241,0.0,358.04,1.4554471544715448
4.259208243400194,0.425921,0.0,358.04,1.4554471544715448
4.3065226874833975,0.430652,0.0,358.04,1.4554471544715448
4.354362735503053,0.435436,0.0,358.04,1.4554471544715448
4.402734226257512,0.440273,0.0,358.04,1.4554471544715448
4.451643063406824,0.445164,0.0,358.04,1.4554471544715448
4.501095216193276,0.45011,0.0,358.04,1.4554471544715448
4.551096720169926,0.45511,0.0,358.04,1.4554471544715448
4.601653677937228,0.460165,0.0,358.04,1.4554471544715448
4.652772259887852,0.465277,0.0,358.04,1.4554471544715448
4.704458704959767,0.470446,0.0,358.04,1.4554471544715448
4.756719321397685,0.475672,0.0,358.04,1.4554471544715448
4.809560487522986,0.480956,0.0,358.04,1.4554471544715448
4.862988652512174,0.451129,0.000124762,358.02,1.4553658536585365
4.917010337183984,0.445263,0.00070499,357.83,1.4545934959349593
4.971632134795246,0.449783,0.00108124,357.6,1.453658536585366
5.026860711845576,0.453411,0.00134151,357.39,1.4528048780487803
5.082702808891011,0.458089,0.00143881,357.32,1.452520325203252
5.139165241366684,0.462531,0.00135912,357.41,1.4528861788617886
5.196254900418639,0.467725,0.000817032,357.64,1.4538211382113821
5.2539787537448746,0.473902,0.000834009,357.79,1.4544308943089432
5.312343846445754,0.480011,0.000499193,357.94,1.455040650406504
5.371357301883837,0.495425,6.28647e-05,358.03,1.4554065040650406
5.431026322553275,0.543103,0.0,358.04,1.4554471544715448
5.491358190958871,0.549136,0.0,358.04,1.4554471544715448
5.5523602705048924,0.555236,0.0,358.04,1.4554471544715448
5.614040006393758,0.561404,0.0,358.04,1.4554471544715448
5.676404926534721,0.56764,0.0,358.04,1.4554471544715448
5.739462642462633,0.573946,0.0,358.04,1.4554471544715448
5.803220850266918,0.580322,0.0,358.04,1.4554471544715448
5.867687331530871,0.586769,0.0,358.04,1.4554471544715448
5.932869954281387,0.593287,0.0,358.04,1.4554471544715448
5.9987766739492345,0.599878,0.0,358.04,1.4554471544715448
6.065415534340013,0.606542,0.0,358.04,1.4554471544715448
6.132794668615875,0.613279,0.0,358.04,1.4554471544715448
6.200922300288177,0.620092,0.0,358.04,1.4554471544715448
6.26980674422113,0.626981,0.0,358.04,1.4554471544715448
6.33945640764663,0.633946,0.0,358.04,1.4554471544715448
6.409879791190342,0.640988,0.0,358.04,1.4554471544715448
6.481085489909176,0.648109,0.0,358.04,1.4554471544715448
6.553082194340318,0.602054,4.21719e-05,358.04,1.4554471544715448
6.625878691561884,0.610246,0.000517315,357.91,1.454918699186992
6.699483866265369,0.608894,0.00103628,357.64,1.4538211382113821
6.773906701840011,0.609738,0.00145456,357.35,1.4526422764227642
6.849156281469203,0.617256,0.0017684,357.11,1.4516666666666667
6.925241789239067,0.62443,0.00183817,356.97,1.4510975609756098
7.0021725112593725,0.63485,0.00202465,356.94,1.4509756097560975
7.079957836796883,0.760419,0.00219138,357.08,1.4515447154471544
7.158607259421295,0.778567,0.00228194,357.16,1.451869918699187
7.238130378163925,0.795218,0.00218434,357.16,1.451869918699187
7.318536898689247,0.804966,0.00259647,357.11,1.4516666666666667
7.399836634479451,0.812706,0.00256675,356.87,1.450691056910569
7.482039508032168,0.820081,0.00285673,356.57,1.4494715447154471
7.565155552071494,0.830655,0.0033736,356.17,1.4478455284552847
7.649194910772461,0.836188,0.00370632,355.69,1.4458943089430893
7.734167840999122,0.846874,0.00396117,355.14,1.4436585365853658
7.820084713556388,0.855392,0.00436708,354.61,1.4415040650406505
7.906956014455753,0.745413,0.00424184,354.13,1.4395528455284552
7.994792346195112,0.723102,0.0042105,353.75,1.4380081300813008
8.083604429052771,0.756656,0.00412305,353.61,1.437439024390244
8.173403102395827,0.762366,0.00405007,353.67,1.4376829268292683
8.264199326003121,0.744512,0.00410005,353.95,1.438821138211382
8.356004181402835,0.824884,0.00416242,354.47,1.4409349593495937
8.448828873224988,0.897627,0.0042804,355.03,1.443211382113821
8.542684730568942,0.93624,0.00379305,355.53,1.4452439024390242
8.637583208386094,0.946465,0.0034711,356.02,1.4472357723577236
8.733535888877936,0.955607,0.00300114,356.46,1.4490243902439024
8.830554482909648,0.96958,0.00284778,356.86,1.450650406504065
8.928650831439386,0.981503,0.00235132,357.17,1.451910569105691
9.027836906963444,0.98912,0.00204772,357.4,1.4528455284552844
9.128124814977493,1.00395,0.00180899,357.52,1.4533333333333334
9.229526795454028,1.01243,0.00157161,357.6,1.453658536585366
9.332055224336228,0.8823,0.00128846,357.67,1.4539430894308945
9.435722615048434,0.856678,0.000989722,357.77,1.454349593495935
9.54054162002339,0.874804,0.000664801,357.94,1.455040650406504
9.646525032246434,1.03041,0.00019081,358.03,1.4554065040650406
9.753685786816883,0.975369,0.0,358.04,1.4554471544715448
9.862036962526732,0.986204,0.0,358.04,1.4554471544715448
9.971591783456889,0.997159,0.0,358.04,1.4554471544715448
10.082363620591163,1.00824,0.0,358.04,1.4554471544715448
10.194365993448185,1.01944,0.0,358.04,1.4554471544715448
10.307612571731394,1.03076,0.0,358.04,1.4554471544715448
10.422117176997459,1.04221,0.0,358.04,1.4554471544715448
10.537893784343142,1.14264,0.000426824,358.02,1.4553658536585365
10.654956524110943,0.992475,0.000727952,357.94,1.455040650406504
10.7733196836137,1.01764,0.00097443,357.78,1.454390243902439
10.892997708878294,0.980811,0.00118332,357.59,1.4536178861788618
11.014005206408806,0.991768,0.00124384,357.52,1.4533333333333334
11.13635694496919,1.00266,0.00107234,357.63,1.4537804878048781
11.260067857385788,1.04139,0.000750108,357.84,1.4546341463414634
11.38515304236985,1.07288,0.0004267,358.0,1.4552845528455285
11.511627766360313,1.15116,0.0,358.04,1.4554471544715448
11.639507465387025,1.16395,0.0,358.04,1.4554471544715448
11.768807746954717,1.17688,0.0,358.04,1.4554471544715448
11.899544391947854,1.18995,0.0,358.04,1.4554471544715448
12.031733356556671,1.20317,0.0,358.04,1.4554471544715448
12.165390774224598,1.21654,0.0,358.04,1.4554471544715448
12.300532957617323,1.23005,0.0,358.04,1.4554471544715448
12.437176400613707,1.16932,0.000356518,358.02,1.4553658536585365
12.575337780318868,1.17546,0.00069918,357.92,1.454959349593496
12.715033959099575,1.14445,0.00103707,357.79,1.4544308943089432
12.856281986642266,1.16326,0.00120823,357.71,1.4541056910569106
12.999099102033945,1.17502,0.00120823,357.71,1.4541056910569106
13.143502735866187,1.23413,0.00103119,357.81,1.4545121951219513
13.289510512362487,1.25774,0.00084918,357.93,1.455
13.4371402515293,1.43552,0.000674718,358.01,1.4553252032520325
13.58640997133093,1.4413,8.96576e-05,358.04,1.4554471544715448
13.73733788988859,1.37373,0.0,358.04,1.4554471544715448
13.88994242770389,1.51259,7.26196e-05,358.04,1.4554471544715448
14.044242209907045,1.54233,0.000645828,358.01,1.4553252032520325
14.200256068530011,1.54665,0.000836409,357.97,1.4551626016260164
14.35800304480494,1.31551,0.000691011,357.94,1.455040650406504
14.517502391488105,1.59668,0.000989799,357.94,1.455040650406504
14.678773575209679,1.6107,0.00114086,357.95,1.4550813008130081
14.841836278849597,1.63243,0.00134119,357.94,1.455040650406504
15.00671040393983,1.63937,0.0016148,357.85,1.4546747967479676
15.173416073093307,1.66815,0.00199353,357.64,1.4538211382113821
15.341973632459885,1.68084,0.00253295,357.33,1.452560975609756
15.512403654209539,1.41068,0.0026684,356.94,1.4509756097560975
15.684726939043165,1.43989,0.00283474,356.67,1.4498780487804879
15.858964518731268,1.74277,0.0038886,356.47,1.4490650406504066
16.03513765868087,1.75312,0.00445298,356.27,1.4482520325203252
16.213267860530888,1.67051,0.0042061,355.96,1.4469918699186992
16.393376864776396,1.47697,0.00429699,355.53,1.4452439024390242
16.57548665342203,1.49256,0.0043646,355.2,1.4439024390243902
16.75961945266481,1.50983,0.0044671,355.22,1.4439837398373985
16.945797735606863,1.52731,0.00415235,355.69,1.4458943089430893
17.13404422499819,1.54328,0.00355347,356.44,1.4489430894308943
17.324381896009932,1.82082,0.0031112,357.18,1.451951219512195
17.5168339790385,1.92621,0.00246899,357.62,1.453739837398374
17.711423962540767,1.94225,0.00164815,357.88,1.4547967479674797
17.908175595900808,1.94293,0.00122284,358.01,1.4553252032520325
18.10711289232847,1.92397,0.000227763,358.03,1.4554065040650406
18.308260131790135,1.93961,0.000110139,358.04,1.4554471544715448
18.511641863972084,1.95009,0.000102988,358.04,1.4554471544715448
18.71728291127668,1.98725,0.000149572,358.04,1.4554471544715448
18.92520837185198,2.02788,0.000231975,358.03,1.4554065040650406
19.135443622654865,2.06837,0.000370997,358.02,1.4553658536585365
19.34801432254828,2.05913,0.000892858,358.0,1.4552845528455285
19.562946415432855,2.13026,0.00110945,357.95,1.4550813008130081
19.780266133413306,1.85889,0.00130181,357.85,1.4546747967479676
20.000000000000004,1.87368,0.00130191,357.85,1.4546747967479676
