freq,fwhm,norm,fit_stat,redchi
1.0471285480508996,0.104713,0.0,246.06,1.0002439024390244
1.0587608285836607,0.105876,0.0,246.06,1.0002439024390244
1.070522329115862,0.107052,0.0,246.06,1.0002439024390244
1.0824144851190958,0.108241,0.0,246.06,1.0002439024390244
1.0944387480112365,0.109444,0.0,246.06,1.0002439024390244
1.1065965853335857,0.11066,0.0,246.06,1.0002439024390244
1.1188894809299823,0.111889,0.0,246.06,1.0002439024390244
1.1313189351279025,0.113132,0.0,246.06,1.0002439024390244
1.1438864649215728,0.114389,0.0,246.06,1.0002439024390244
1.1565936041571172,0.115659,0.0,246.06,1.0002439024390244
1.1694419037197599,0.116944,0.0,246.06,1.0002439024390244
1.1824329317231081,0.118243,0.0,246.06,1.0002439024390244
1.1955682737005384,0.119557,0.0,246.06,1.0002439024390244
1.2088495327987077,0.120885,0.0,246.06,1.0002439024390244
1.2222783299732152,0.122228,0.0,246.06,1.0002439024390244
1.2358563041864368,0.123586,0.0,246.06,1.0002439024390244
1.2495851126075586,0.124959,0.0,246.06,1.0002439024390244
1.2634664308148307,0.126347,0.0,246.06,1.0002439024390244
1.2775019530000689,0.12775,0.0,246.06,1.0002439024390244
1.2916933921754286,0.129169,0.0,246.06,1.0002439024390244
1.3060424803824748,0.130604,0.0,246.06,1.0002439024390244
1.3205509689035746,0.132055,0.0,246.06,1.0002439024390244
1.3352206284756383,0.133522,0.0,246.06,1.0002439024390244
1.3500532495062354,0.135005,0.0,246.06,1.0002439024390244
1.3650506422921107,0.136505,0.0,246.06,1.0002439024390244
1.3802146372401272,0.138021,0.0,246.06,1.0002439024390244
1.3955470850906657,0.139555,0.0,246.06,1.0002439024390244
1.4110498571435033,0.141105,0.0,246.06,1.0002439024390244
1.4267248454862032,0.142672,0.0,246.06,1.0002439024390244
1.4425739632250398,0.144257,0.0,246.06,1.0002439024390244
1.4585991447184923,0.14586,0.0,246.06,1.0002439024390244
1.474802345813327,0.14748,0.0,246.06,1.0002439024390244
1.491185544083308,0.149119,0.0,246.06,1.0002439024390244
1.5077507390705542,0.150775,0.0,246.06,1.0002439024390244
1.5244999525295826,0.15245,0.0,246.06,1.0002439024390244
1.5414352286740576,0.154144,0.0,246.06,1.0002439024390244
1.5585586344262863,0.155856,0.0,246.06,1.0002439024390244
1.5758722596694812,0.157587,0.0,246.06,1.0002439024390244
1.593378217502827,0.159338,0.0,246.06,1.0002439024390244
1.6110786444993823,0.147527,0.000515356,246.06,1.0002439024390244
1.6289757009668435,0.147072,0.0042936,246.0,1.0
1.6470715712112072,0.148261,0.00627202,245.96,0.9998373983739838
1.6653684638033603,0.150408,0.00335035,245.99,0.999959349593496
1.6838686118486341,0.152198,0.00613746,245.98,0.9999186991869918
1.70257427325935,0.154188,0.00503918,246.0,1.0
1.7214877310303935,0.160086,0.00185647,246.04,1.0001626016260163
1.7406112935178513,0.159198,0.00101984,246.05,1.0002032520325204
1.7599472947207409,0.160226,0.000269495,246.06,1.0002439024390244
1.779498094565872,0.17795,0.0,246.06,1.0002439024390244
1.7992660791958721,0.179927,0.0,246.06,1.0002439024390244
1.81925366126041,0.181925,0.0,246.06,1.0002439024390244
1.839463280210657,0.183946,0.0,246.06,1.0002439024390244
1.8598974025970172,0.18599,0.0,246.06,1.0002439024390244
1.8805585223701655,0.188056,0.0,246.06,1.0002439024390244
1.901449161185431,0.190145,0.0,246.06,1.0002439024390244
1.9225718687105604,0.192257,0.0,246.06,1.0002439024390244
1.9439292229369007,0.194393,0.0,246.06,1.0002439024390244
1.9655238304940383,0.196552,0.0,246.06,1.0002439024390244
1.9873583269679354,0.198736,0.0,246.06,1.0002439024390244
2.0094353772225966,0.200944,0.0,246.06,1.0002439024390244
2.031757675725313,0.203176,0.0,246.06,1.0002439024390244
2.0543279468755165,0.205433,0.0,246.06,1.0002439024390244
2.077148945337289,0.207715,0.0,246.06,1.0002439024390244
2.100223456375563,0.210022,0.0,246.06,1.0002439024390244
2.123554296196061,0.212355,0.0,246.06,1.0002439024390244
2.147144312289006,0.214714,0.0,246.06,1.0002439024390244
2.1709963837766555,0.2171,0.0,246.06,1.0002439024390244
2.1951134217646913,0.219511,0.0,246.06,1.0002439024390244
2.219498369697517,0.206013,0.00292276,246.05,1.0002032520325204
2.244154203717499,0.21154,0.00657838,246.0,1.0
2.269083933028201,0.212297,0.0101865,245.91,0.9996341463414634
2.2942906002616517,0.206802,0.0142692,245.82,0.9992682926829268
2.3197772818496922,0.20898,0.0171489,245.78,0.9991056910569106
2.3455470883994516,0.25698,0.0223417,245.75,0.9989837398373984
2.371603165072989,0.260566,0.0252462,245.68,0.99869918699187
2.397948691971156,0.262504,0.0290008,245.59,0.9983333333333333
2.424586884521724,0.265821,0.0326726,245.45,0.9977642276422763
2.45152099387182,0.268824,0.0364187,245.24,0.9969105691056911
2.478754307284725,0.232165,0.0391164,244.99,0.9958943089430895
2.50629014854108,0.225629,0.0436249,244.66,0.9945528455284552
2.5341318783445423,0.228114,0.0470065,244.44,0.9936585365853658
2.5622828947319634,0.230891,0.0471007,244.39,0.9934552845528455
2.5907466334881044,0.250229,0.0521906,244.43,0.9936178861788618
2.6195265685649725,0.277961,0.0558879,244.48,0.9938211382113821
2.648626212505812,0.284532,0.0551666,244.52,0.9939837398373984
2.678049116873801,0.282049,0.0495965,244.55,0.9941056910569106
2.7077988726855153,0.254781,0.0411328,244.6,0.9943089430894309
2.737879110849208,0.248589,0.0382939,244.7,0.9947154471544715
2.7682935026079525,0.255538,0.0306476,244.95,0.9957317073170732
2.7990457599877123,0.302993,0.0326638,245.22,0.9968292682926829
2.8301396362503914,0.311201,0.0285074,245.46,0.9978048780487805
2.8615789263519074,0.31454,0.0271469,245.64,0.9985365853658537
2.8933674674053647,0.317978,0.0276174,245.72,0.9988617886178862
2.9255091391493653,0.321635,0.0299505,245.68,0.99869918699187
2.9580078644215257,0.32413,0.0342461,245.51,0.9980081300813007
2.9908676096372515,0.3288,0.0396551,245.18,0.9966666666666667
3.024092385273832,0.279716,0.0448419,244.79,0.995081300813008
3.057686246359914,0.276032,0.0502161,244.37,0.9933739837398374
3.0916532929704084,0.287183,0.0516039,244.21,0.9927235772357724
3.1259976707269,0.339588,0.0643342,244.15,0.992479674796748
3.1607235713036137,0.347378,0.0649842,244.1,0.9922764227642277
3.195835232938998,0.348705,0.0678467,244.05,0.9920731707317073
3.2313369409529997,0.354415,0.0672077,243.98,0.9917886178861788
3.267233028270078,0.351078,0.0715551,243.94,0.9916260162601626
3.3035278759480278,0.362763,0.0694558,243.9,0.9914634146341463
3.3402259137126866,0.351934,0.067688,243.9,0.9914634146341463
3.377331620498571,0.316582,0.0627395,243.95,0.9916666666666666
3.4148495249955215,0.320042,0.0605237,244.07,0.9921544715447154
3.452784206201428,0.378265,0.0631511,244.3,0.993089430894309
3.4911402939810827,0.378893,0.0632792,244.54,0.9940650406504065
3.52992246963125,0.387905,0.0597263,244.74,0.9948780487804878
3.5691354664520105,0.376235,0.0528896,244.89,0.9954878048780488
3.608784070324455,0.325619,0.0420838,244.99,0.9958943089430895
3.6488731202947875,0.329533,0.0385529,245.08,0.9962601626016261
3.6894075091649277,0.332511,0.0334073,245.22,0.9968292682926829
3.73039218408967,0.335756,0.0262341,245.4,0.9975609756097561
3.771832147180468,0.339629,0.0191707,245.62,0.9984552845528456
3.8137324561159454,0.349428,0.00990023,245.88,0.9995121951219512
3.856098224759168,0.363152,0.00632133,246.02,1.0000813008130083
3.898934623781784,0.389893,0.0,246.06,1.0002439024390244
3.9422468812951004,0.394225,0.0,246.06,1.0002439024390244
3.9860402834881605,0.398604,0.0,246.06,1.0002439024390244
4.030320175272916,0.403032,0.0,246.06,1.0002439024390244
4.075091960936564,0.407509,0.0,246.06,1.0002439024390244
4.120361104801134,0.412036,0.0,246.06,1.0002439024390244
4.166133131890395,0.416613,0.0,246.06,1.0002439024390244
4.21241362860418,0.421241,0.0,246.06,1.0002439024390244
4.259208243400194,0.425921,0.0,246.06,1.0002439024390244
4.3065226874833975,0.430652,0.0,246.06,1.0002439024390244
4.354362735503053,0.435436,0.0,246.06,1.0002439024390244
4.402734226257512,0.440273,0.0,246.06,1.0002439024390244
4.451643063406824,0.445164,0.0,246.06,1.0002439024390244
4.501095216193276,0.45011,0.0,246.06,1.0002439024390244
4.551096720169926,0.45511,0.0,246.06,1.0002439024390244
4.601653677937228,0.460165,0.0,246.06,1.0002439024390244
4.652772259887852,0.465277,0.0,246.06,1.0002439024390244
4.704458704959767,0.470446,0.0,246.06,1.0002439024390244
4.756719321397685,0.475672,0.0,246.06,1.0002439024390244
4.809560487522986,0.480956,0.0,246.06,1.0002439024390244
4.862988652512174,0.46177,0.000370871,246.06,1.0002439024390244
4.917010337183984,0.444408,0.00892585,246.01,1.000040650406504
4.971632134795246,0.450548,0.0160841,245.92,0.9996747967479674
5.026860711845576,0.465778,0.0125841,245.9,0.9995934959349594
5.082702808891011,0.475738,0.0144362,245.87,0.9994715447154472
5.139165241366684,0.484235,0.014205,245.88,0.9995121951219512
5.196254900418639,0.473397,0.0190207,245.88,0.9995121951219512
5.2539787537448746,0.475011,0.01595,245.92,0.9996747967479674
5.312343846445754,0.478464,0.0127331,245.96,0.9998373983739838
5.371357301883837,0.487752,0.00912945,245.99,0.999959349593496
5.431026322553275,0.505059,0.00190955,246.05,1.0002032520325204
5.491358190958871,0.549136,0.0,246.06,1.0002439024390244
5.5523602705048924,0.555236,0.0,246.06,1.0002439024390244
5.614040006393758,0.561404,0.0,246.06,1.0002439024390244
5.676404926534721,0.56764,0.0,246.06,1.0002439024390244
5.739462642462633,0.573946,0.0,246.06,1.0002439024390244
5.803220850266918,0.580322,0.0,246.06,1.0002439024390244
5.867687331530871,0.586769,0.0,246.06,1.0002439024390244
5.932869954281387,0.593287,0.0,246.06,1.0002439024390244
5.9987766739492345,0.599878,0.0,246.06,1.0002439024390244
6.065415534340013,0.606542,0.0,246.06,1.0002439024390244
6.132794668615875,0.613279,0.0,246.06,1.0002439024390244
6.200922300288177,0.620092,0.0,246.06,1.0002439024390244
6.26980674422113,0.626981,0.0,246.06,1.0002439024390244
6.33945640764663,0.633946,0.0,246.06,1.0002439024390244
6.409879791190342,0.640988,0.0,246.06,1.0002439024390244
6.481085489909176,0.648109,0.0,246.06,1.0002439024390244
6.553082194340318,0.655308,0.0,246.06,1.0002439024390244
6.625878691561884,0.662588,0.0,246.06,1.0002439024390244
6.699483866265369,0.669948,0.0,246.06,1.0002439024390244
6.773906701840011,0.677391,0.0,246.06,1.0002439024390244
6.849156281469203,0.633082,0.00202618,246.05,1.0002032520325204
6.925241789239067,0.638914,0.00431386,246.03,1.0001219512195123
7.0021725112593725,0.630711,0.00954032,245.99,0.999959349593496
7.079957836796883,0.639998,0.00238699,246.05,1.0002032520325204
7.158607259421295,0.715861,0.0,246.06,1.0002439024390244
7.238130378163925,0.723813,0.0,246.06,1.0002439024390244
7.318536898689247,0.731854,0.0,246.06,1.0002439024390244
7.399836634479451,0.739984,0.0,246.06,1.0002439024390244
7.482039508032168,0.748204,0.0,246.06,1.0002439024390244
7.565155552071494,0.756516,0.0,246.06,1.0002439024390244
7.649194910772461,0.764919,0.0,246.06,1.0002439024390244
7.734167840999122,0.773417,0.0,246.06,1.0002439024390244
7.820084713556388,0.782008,0.0,246.06,1.0002439024390244
7.906956014455753,0.790696,0.0,246.06,1.0002439024390244
7.994792346195112,0.799479,0.0,246.06,1.0002439024390244
8.083604429052771,0.80836,0.0,246.06,1.0002439024390244
8.173403102395827,0.81734,0.0,246.06,1.0002439024390244
8.264199326003121,0.82642,0.0,246.06,1.0002439024390244
8.356004181402835,0.8356,0.0,246.06,1.0002439024390244
8.448828873224988,0.844883,0.0,246.06,1.0002439024390244
8.542684730568942,0.854268,0.0,246.06,1.0002439024390244
8.637583208386094,0.863758,0.0,246.06,1.0002439024390244
8.733535888877936,0.873354,0.0,246.06,1.0002439024390244
8.830554482909648,0.883055,0.0,246.06,1.0002439024390244
8.928650831439386,0.892865,0.0,246.06,1.0002439024390244
9.027836906963444,0.902784,0.0,246.06,1.0002439024390244
9.128124814977493,0.912812,0.0,246.06,1.0002439024390244
9.229526795454028,0.922953,0.0,246.06,1.0002439024390244
9.332055224336228,0.933206,0.0,246.06,1.0002439024390244
9.435722615048434,0.943572,0.0,246.06,1.0002439024390244
9.54054162002339,0.954054,0.0,246.06,1.0002439024390244
9.646525032246434,0.964653,0.0,246.06,1.0002439024390244
9.753685786816883,0.975369,0.0,246.06,1.0002439024390244
9.862036962526732,0.986204,0.0,246.06,1.0002439024390244
9.971591783456889,0.997159,0.0,246.06,1.0002439024390244
10.082363620591163,1.00824,0.0,246.06,1.0002439024390244
10.194365993448185,1.01944,0.0,246.06,1.0002439024390244
10.307612571731394,1.03076,0.0,246.06,1.0002439024390244
10.422117176997459,1.04221,0.0,246.06,1.0002439024390244
10.537893784343142,1.05379,0.0,246.06,1.0002439024390244
10.654956524110943,1.0655,0.0,246.06,1.0002439024390244
10.7733196836137,1.07733,0.0,246.06,1.0002439024390244
10.892997708878294,1.0893,0.0,246.06,1.0002439024390244
11.014005206408806,1.1014,0.0,246.06,1.0002439024390244
11.13635694496919,1.11364,0.0,246.06,1.0002439024390244
11.260067857385788,1.12601,0.0,246.06,1.0002439024390244
11.38515304236985,1.13852,0.0,246.06,1.0002439024390244
11.511627766360313,1.15116,0.0,246.06,1.0002439024390244
11.639507465387025,1.16395,0.0,246.06,1.0002439024390244
11.768807746954717,1.17688,0.0,246.06,1.0002439024390244
11.899544391947854,1.18995,0.0,246.06,1.0002439024390244
12.031733356556671,1.20317,0.0,246.06,1.0002439024390244
12.165390774224598,1.21654,0.0,246.06,1.0002439024390244
12.300532957617323,1.23005,0.0,246.06,1.0002439024390244
12.437176400613707,1.24372,0.0,246.06,1.0002439024390244
12.575337780318868,1.25753,0.0,246.06,1.0002439024390244
12.715033959099575,1.2715,0.0,246.06,1.0002439024390244
12.856281986642266,1.28563,0.0,246.06,1.0002439024390244
12.999099102033945,1.29991,0.0,246.06,1.0002439024390244
13.143502735866187,1.31435,0.0,246.06,1.0002439024390244
13.289510512362487,1.32895,0.0,246.06,1.0002439024390244
13.4371402515293,1.34371,0.0,246.06,1.0002439024390244
13.58640997133093,1.35864,0.0,246.06,1.0002439024390244
13.73733788988859,1.37373,0.0,246.06,1.0002439024390244
13.88994242770389,1.38899,0.0,246.06,1.0002439024390244
14.044242209907045,1.40442,0.0,246.06,1.0002439024390244
14.200256068530011,1.42003,0.0,246.06,1.0002439024390244
14.35800304480494,1.4358,0.0,246.06,1.0002439024390244
14.517502391488105,1.45175,0.0,246.06,1.0002439024390244
14.678773575209679,1.46788,0.0,246.06,1.0002439024390244
14.841836278849597,1.48418,0.0,246.06,1.0002439024390244
15.00671040393983,1.50067,0.0,246.06,1.0002439024390244
15.173416073093307,1.51734,0.0,246.06,1.0002439024390244
15.341973632459885,1.5342,0.0,246.06,1.0002439024390244
15.512403654209539,1.55124,0.0,246.06,1.0002439024390244
15.684726939043165,1.56847,0.0,246.06,1.0002439024390244
15.858964518731268,1.5859,0.0,246.06,1.0002439024390244
16.03513765868087,1.60351,0.0,246.06,1.0002439024390244
16.213267860530888,1.62133,0.0,246.06,1.0002439024390244
16.393376864776396,1.63934,0.0,246.06,1.0002439024390244
16.57548665342203,1.65755,0.0,246.06,1.0002439024390244
16.75961945266481,1.67596,0.0,246.06,1.0002439024390244
16.945797735606863,1.69458,0.0,246.06,1.0002439024390244
17.13404422499819,1.7134,0.0,246.06,1.0002439024390244
17.324381896009932,1.73244,0.0,246.06,1.0002439024390244
17.5168339790385,1.75168,0.0,246.06,1.0002439024390244
17.711423962540767,1.77114,0.0,246.06,1.0002439024390244
17.908175595900808,1.79082,0.0,246.06,1.0002439024390244
18.10711289232847,1.81071,0.0,246.06,1.0002439024390244
18.308260131790135,1.83083,0.0,246.06,1.0002439024390244
18.511641863972084,1.85116,0.0,246.06,1.0002439024390244
18.71728291127668,1.87173,0.0,246.06,1.0002439024390244
18.92520837185198,1.89252,0.0,246.06,1.0002439024390244
19.135443622654865,1.91354,0.0,246.06,1.0002439024390244
19.34801432254828,1.9348,0.0,246.06,1.0002439024390244
19.562946415432855,1.95629,0.0,246.06,1.0002439024390244
19.780266133413306,1.97803,0.0,246.06,1.0002439024390244
20.000000000000004,2.0,0.0,246.06,1.0002439024390244
