freq,redchi,fitstat,norm,width
1.0471285480508996,1.918972972972973,355.01,0.000377201,0.095456
1.0587608285836607,1.9182162162162162,354.87,0.000385586,0.0964369
1.070522329115862,1.9183243243243242,354.89,0.000415029,0.096347
1.0824144851190958,1.9225405405405407,355.67,0.000418169,0.0974173
1.0944387480112365,1.9315675675675674,357.34,0.000423914,0.0984995
1.1065965853335857,1.9471891891891893,360.23,0.000410528,0.0995937
1.1188894809299823,1.9669729729729728,363.89,0.000401612,0.100938
1.1313189351279025,1.9839459459459459,367.03,0.00038412,0.124204
1.1438864649215728,1.9975675675675677,369.55,0.000340584,0.125817
1.1565936041571172,2.0076756756756757,371.42,0.000295579,0.127183
1.1694419037197599,2.0148108108108107,372.74,0.000261841,0.128638
1.1824329317231081,2.0196216216216216,373.63,0.000232775,0.130019
1.1955682737005384,2.022972972972973,374.25,0.000211223,0.131512
1.2088495327987077,2.0253513513513512,374.69,0.000195707,0.132919
1.2222783299732152,2.0275135135135134,375.09,0.000189207,0.13138
1.2358563041864368,2.0285405405405403,375.28,0.000178589,0.132636
1.2495851126075586,2.028486486486486,375.27,0.000133032,0.137423
1.2634664308148307,2.0297297297297296,375.5,0.000164811,0.1345
1.2775019530000689,2.0300000000000002,375.55,0.000161526,0.135272
1.2916933921754286,2.030108108108108,375.57,0.000160833,0.136088
1.3060424803824748,2.0296756756756755,375.49,0.000162152,0.143654
1.3205509689035746,2.0295135135135136,375.46,0.000167783,0.145258
1.3352206284756383,2.0293513513513513,375.43,0.00017648,0.146808
1.3500532495062354,2.029081081081081,375.38,0.000157935,0.14846
1.3650506422921107,2.0292432432432435,375.41,0.000158399,0.149902
1.3802146372401272,2.0297837837837838,375.51,0.000185429,0.151778
1.3955470850906657,2.030162162162162,375.58,0.000168768,0.152867
1.4110498571435033,2.0305945945945947,375.66,0.000159913,0.155077
1.4267248454862032,2.030972972972973,375.73,0.00015347,0.156644
1.4425739632250398,2.031189189189189,375.77,0.000149969,0.158668
1.4585991447184923,2.031189189189189,375.77,0.000120772,0.160306
1.474802345813327,2.031135135135135,375.76,0.000120558,0.162144
1.491185544083308,2.030972972972973,375.73,0.000122701,0.164024
1.5077507390705542,2.030648648648649,375.67,0.000127521,0.165817
1.5244999525295826,2.030108108108108,375.57,0.00013571,0.167553
1.5414352286740576,2.0292972972972976,375.42,0.000148494,0.169185
1.5585586344262863,2.028,375.18,0.000167844,0.171139
1.5758722596694812,2.026108108108108,374.83,0.000196545,0.173059
1.593378217502827,2.023405405405405,374.33,0.000239587,0.1752
1.6110786444993823,2.0198918918918918,373.68,0.000289446,0.176937
1.6289757009668435,2.016,372.96,0.000378937,0.179067
1.6470715712112072,2.0118918918918918,372.2,0.000406022,0.180958
1.6653684638033603,2.0086486486486486,371.6,0.000461018,0.183105
1.6838686118486341,2.0060000000000002,371.11,0.000493102,0.185191
1.70257427325935,2.0038378378378376,370.71,0.000508921,0.18725
1.7214877310303935,2.001891891891892,370.35,0.000535997,0.189272
1.7406112935178513,1.999945945945946,369.99,0.000571445,0.190461
1.7599472947207409,1.9972972972972973,369.5,0.000604881,0.193465
1.779498094565872,1.9935675675675675,368.81,0.000598923,0.195711
1.7992660791958721,1.9895135135135136,368.06,0.000640105,0.197867
1.81925366126041,1.984810810810811,367.19,0.000687704,0.200117
1.839463280210657,1.98,366.3,0.000737779,0.202196
1.8598974025970172,1.9762162162162162,365.6,0.000778592,0.204528
1.8805585223701655,1.9744864864864864,365.28,0.000790421,0.206806
1.901449161185431,1.9744864864864864,365.28,0.000762484,0.209128
1.9225718687105604,1.9755135135135136,365.47,0.00073782,0.21145
1.9439292229369007,1.9763783783783784,365.63,0.000714772,0.213825
1.9655238304940383,1.9766486486486488,365.68,0.000719206,0.216208
1.9873583269679354,1.9752432432432434,365.42,0.000703005,0.218573
2.0094353772225966,1.9725945945945946,364.93,0.000722768,0.221027
2.031757675725313,1.9681081081081082,364.1,0.00075643,0.223481
2.0543279468755165,1.9613513513513514,362.85,0.000811018,0.225975
2.077148945337289,1.9518378378378376,361.09,0.000890448,0.228479
2.100223456375563,1.9396216216216215,358.83,0.00099117,0.231015
2.123554296196061,1.925891891891892,356.29,0.00110772,0.233583
2.147144312289006,1.9127027027027028,353.85,0.00118897,0.236129
2.1709963837766555,1.9026486486486487,351.99,0.00121847,0.238792
2.1951134217646913,1.8966486486486487,350.88,0.0012707,0.241462
2.219498369697517,1.892,350.02,0.00129042,0.244145
2.244154203717499,1.8865405405405404,349.01,0.00132147,0.246857
2.269083933028201,1.8778378378378378,347.4,0.00134638,0.249575
2.2942906002616517,1.8648108108108108,344.99,0.00144693,0.252307
2.3197772818496922,1.844810810810811,341.29,0.00160217,0.255148
2.3455470883994516,1.8155135135135136,335.87,0.00182515,0.257992
2.371603165072989,1.776108108108108,328.58,0.0021568,0.260876
2.397948691971156,1.7289189189189191,319.85,0.00256988,0.263764
2.424586884521724,1.6796216216216218,310.73,0.0027658,0.237451
2.45152099387182,1.6366486486486485,302.78,0.00304028,0.22064
2.478754307284725,1.6131891891891892,298.44,0.00326845,0.228521
2.50629014854108,1.6052432432432433,296.97,0.00337472,0.240978
2.5341318783445423,1.611243243243243,298.08,0.00335464,0.238604
2.5622828947319634,1.6323783783783785,301.99,0.00320438,0.230769
2.5907466334881044,1.673081081081081,309.52,0.00294291,0.233649
2.6195265685649725,1.724864864864865,319.1,0.00280436,0.287961
2.648626212505812,1.7762162162162163,328.6,0.00250024,0.291349
2.678049116873801,1.8174594594594595,336.23,0.00207885,0.294585
2.7077988726855153,1.8494054054054054,342.14,0.00183721,0.297858
2.737879110849208,1.872054054054054,346.33,0.00166984,0.301167
2.7682935026079525,1.8883783783783785,349.35,0.00155366,0.304512
2.7990457599877123,1.9016216216216217,351.8,0.00146727,0.307895
2.8301396362503914,1.9145405405405405,354.19,0.00136916,0.311283
2.8615789263519074,1.928972972972973,356.86,0.0012603,0.314763
2.8933674674053647,1.944,359.64,0.00112898,0.318264
2.9255091391493653,1.9576756756756757,362.17,0.00100331,0.321774
2.9580078644215257,1.968756756756757,364.22,0.000889607,0.325353
2.9908676096372515,1.977189189189189,365.78,0.000789067,0.328969
3.024092385273832,1.9865405405405405,367.51,0.000826269,0.332638
3.057686246359914,1.9908648648648648,368.31,0.000672427,0.336343
3.0916532929704084,1.9964324324324323,369.34,0.00053863,0.339995
3.1259976707269,2.002378378378378,370.44,0.000465885,0.343762
3.1607235713036137,2.008162162162162,371.51,0.000421588,0.344066
3.195835232938998,2.012216216216216,372.26,0.000354378,0.351531
3.2313369409529997,2.016,372.96,0.00032382,0.354888
3.267233028270078,2.018864864864865,373.49,0.000269686,0.35926
3.3035278759480278,2.0217297297297296,374.02,0.000226611,0.36267
3.3402259137126866,2.0247027027027027,374.57,0.000201913,0.367379
3.377331620498571,2.0276216216216216,375.11,0.000182908,0.371407
3.4148495249955215,2.0298918918918916,375.53,0.000157012,0.375611
3.452784206201428,2.0312432432432432,375.78,0.000132075,0.379129
3.4911402939810827,2.0318378378378377,375.89,0.000120134,0.383389
3.52992246963125,2.0317837837837835,375.88,0.000119522,0.388289
3.5691354664520105,2.031135135135135,375.76,0.000130837,0.392586
3.608784070324455,2.0298918918918916,375.53,0.000148159,0.396957
3.6488731202947875,2.028054054054054,375.19,0.000164447,0.401255
3.6894075091649277,2.026162162162162,374.84,0.000176647,0.405615
3.73039218408967,2.0247027027027027,374.57,0.000200388,0.410316
3.771832147180468,2.023945945945946,374.43,0.000210584,0.408439
3.8137324561159454,2.023513513513514,374.35,0.000202675,0.418997
3.856098224759168,2.023891891891892,374.42,0.000201055,0.423377
3.898934623781784,2.0244324324324325,374.52,0.000192852,0.427754
3.9422468812951004,2.0247027027027027,374.57,0.000184851,0.433461
3.9860402834881605,2.0245945945945945,374.55,0.000182944,0.438412
4.030320175272916,2.023945945945946,374.43,0.000188175,0.442991
4.075091960936564,2.022864864864865,374.23,0.000199439,0.44804
4.120361104801134,2.0215135135135136,373.98,0.00021271,0.452986
4.166133131890395,2.02,373.7,0.000215155,0.458259
4.21241362860418,2.0184864864864864,373.42,0.000215895,0.462886
4.259208243400194,2.016756756756757,373.1,0.000221793,0.468353
4.3065226874833975,2.014756756756757,372.73,0.000232137,0.473405
4.354362735503053,2.0124324324324325,372.3,0.000244543,0.478585
4.402734226257512,2.01027027027027,371.9,0.00026808,0.484301
4.451643063406824,2.007135135135135,371.32,0.000262892,0.489676
4.501095216193276,2.0035135135135134,370.65,0.00027685,0.49504
4.551096720169926,1.9984864864864866,369.72,0.000304612,0.500356
4.601653677937228,1.9915135135135136,368.43,0.000346489,0.505954
4.652772259887852,1.9824324324324325,366.75,0.000396909,0.511741
4.704458704959767,1.9716216216216216,364.75,0.000476204,0.517485
4.756719321397685,1.957189189189189,362.08,0.000526296,0.52319
4.809560487522986,1.9406486486486485,359.02,0.000700273,0.529051
4.862988652512174,1.9193513513513514,355.08,0.000841432,0.522605
4.917010337183984,1.8905945945945946,349.76,0.000918653,0.540856
4.971632134795246,1.8651891891891892,345.06,0.000999903,0.501456
5.026860711845576,1.8436756756756756,341.08,0.00108227,0.453343
5.082702808891011,1.8330810810810811,339.12,0.00112195,0.460128
5.139165241366684,1.8355675675675676,339.58,0.00111374,0.494296
5.196254900418639,1.8466486486486486,341.63,0.00106577,0.545724
5.2539787537448746,1.8630270270270273,344.66,0.000995439,0.576702
5.312343846445754,1.8835135135135135,348.45,0.000927928,0.584341
5.371357301883837,1.9044324324324324,352.32,0.000813136,0.590797
5.431026322553275,1.9243783783783783,356.01,0.000734351,0.597413
5.491358190958871,1.9391351351351351,358.74,0.000580697,0.603996
5.5523602705048924,1.953081081081081,361.32,0.000538371,0.61076
5.614040006393758,1.9634594594594594,363.24,0.000467497,0.617484
5.676404926534721,1.9705945945945946,364.56,0.000424015,0.624385
5.739462642462633,1.9741621621621623,365.22,0.000422683,0.631341
5.803220850266918,1.9732432432432434,365.05,0.000430447,0.638354
5.867687331530871,1.9686486486486485,364.2,0.000458107,0.645427
5.932869954281387,1.9618918918918917,362.95,0.000489679,0.652557
5.9987766739492345,1.956054054054054,361.87,0.000520472,0.659289
6.065415534340013,1.9523783783783784,361.19,0.000486566,0.547933
6.132794668615875,1.9555135135135133,361.77,0.000463617,0.552119
6.200922300288177,1.9661081081081082,363.73,0.000422706,0.559598
6.26980674422113,1.9810270270270272,366.49,0.0003817,0.565544
6.33945640764663,1.9961621621621624,369.29,0.00035821,0.695985
6.409879791190342,2.008216216216216,371.52,0.000299256,0.705044
6.481085489909176,2.0169189189189187,373.13,0.00022925,0.712466
6.553082194340318,2.023135135135135,374.28,0.000175537,0.720074
6.625878691561884,2.0274594594594593,375.08,0.000142697,0.728713
6.699483866265369,2.030378378378378,375.62,0.000115132,0.736237
6.773906701840011,2.0322702702702706,375.97,9.52842e-05,0.743051
6.849156281469203,2.0334054054054054,376.18,8.24077e-05,0.751301
6.925241789239067,2.034054054054054,376.3,7.3674e-05,0.761558
7.0021725112593725,2.0344324324324323,376.37,6.67976e-05,0.766539
7.079957836796883,2.0345405405405406,376.39,6.13301e-05,0.778611
7.158607259421295,2.0347567567567566,376.43,5.68643e-05,0.785416
7.238130378163925,2.034972972972973,376.47,5.38419e-05,0.795935
7.318536898689247,2.0352972972972974,376.53,5.24888e-05,0.803297
7.399836634479451,2.0354594594594593,376.56,5.25862e-05,0.811243
7.482039508032168,2.0354054054054056,376.55,5.39238e-05,0.821118
7.565155552071494,2.035027027027027,376.48,5.82065e-05,0.829392
7.649194910772461,2.0343243243243245,376.35,6.49325e-05,0.841267
7.734167840999122,2.0334594594594595,376.19,7.51264e-05,0.830741
7.820084713556388,2.032486486486486,376.01,7.61011e-05,0.708158
7.906956014455753,2.032054054054054,375.93,7.92451e-05,0.717813
7.994792346195112,2.032216216216216,375.96,7.83134e-05,0.730704
8.083604429052771,2.0327027027027027,376.05,7.27007e-05,0.741335
8.173403102395827,2.0332972972972976,376.16,6.61579e-05,0.735716
8.264199326003121,2.034108108108108,376.31,4.95441e-05,0.747207
8.356004181402835,2.0348108108108107,376.44,4.53619e-05,0.758462
8.448828873224988,2.0354054054054056,376.55,4.79744e-05,0.91204
8.542684730568942,2.0358378378378377,376.63,3.74124e-05,0.917412
8.637583208386094,2.0361081081081083,376.68,3.25119e-05,0.926799
8.733535888877936,2.03627027027027,376.71,2.69361e-05,0.794999
8.830554482909648,2.0363243243243243,376.72,2.00756e-05,0.828143
8.928650831439386,2.0364864864864867,376.75,2.06144e-05,0.807569
9.027836906963444,2.036810810810811,376.81,7.63631e-06,0.815485
9.128124814977493,2.036972972972973,376.84,3.42493e-06,0.903133
9.229526795454028,2.036972972972973,376.84,0.0,0.922953
9.332055224336228,2.036972972972973,376.84,0.0,0.933206
9.435722615048434,2.036972972972973,376.84,0.0,0.943572
9.54054162002339,2.036972972972973,376.84,0.0,0.954054
9.646525032246434,2.036972972972973,376.84,0.0,0.964653
9.753685786816883,2.036972972972973,376.84,0.0,0.975369
9.862036962526732,2.036972972972973,376.84,0.0,0.986204
9.971591783456889,2.036972972972973,376.84,0.0,0.997159
10.082363620591163,2.036972972972973,376.84,0.0,1.00824
10.194365993448185,2.036972972972973,376.84,0.0,1.01944
10.307612571731394,2.036972972972973,376.84,0.0,1.03076
10.422117176997459,2.036972972972973,376.84,0.0,1.04221
10.537893784343142,2.036972972972973,376.84,0.0,1.05379
10.654956524110943,2.036972972972973,376.84,0.0,1.0655
10.7733196836137,2.036972972972973,376.84,0.0,1.07733
10.892997708878294,2.036972972972973,376.84,0.0,1.0893
11.014005206408806,2.036972972972973,376.84,0.0,1.1014
11.13635694496919,2.036972972972973,376.84,0.0,1.11364
11.260067857385788,2.036972972972973,376.84,0.0,1.12601
11.38515304236985,2.036972972972973,376.84,0.0,1.13852
11.511627766360313,2.036972972972973,376.84,0.0,1.15116
11.639507465387025,2.036972972972973,376.84,0.0,1.16395
11.768807746954717,2.036972972972973,376.84,0.0,1.17688
11.899544391947854,2.036972972972973,376.84,0.0,1.18995
12.031733356556671,2.036972972972973,376.84,0.0,1.20317
12.165390774224598,2.036972972972973,376.84,0.0,1.21654
12.300532957617323,2.036972972972973,376.84,0.0,1.23005
12.437176400613707,2.036972972972973,376.84,0.0,1.24372
12.575337780318868,2.036972972972973,376.84,0.0,1.25753
12.715033959099575,2.036972972972973,376.84,0.0,1.2715
12.856281986642266,2.036972972972973,376.84,0.0,1.28563
12.999099102033945,2.036972972972973,376.84,0.0,1.29991
13.143502735866187,2.036972972972973,376.84,0.0,1.31435
13.289510512362487,2.036972972972973,376.84,0.0,1.32895
13.4371402515293,2.036972972972973,376.84,0.0,1.34371
13.58640997133093,2.036972972972973,376.84,0.0,1.35864
13.73733788988859,2.036972972972973,376.84,0.0,1.37373
13.88994242770389,2.036972972972973,376.84,0.0,1.38899
14.044242209907045,2.036972972972973,376.84,0.0,1.40442
14.200256068530011,2.036972972972973,376.84,0.0,1.42003
14.35800304480494,2.036972972972973,376.84,0.0,1.4358
14.517502391488105,2.036972972972973,376.84,0.0,1.45175
14.678773575209679,2.036972972972973,376.84,0.0,1.46788
14.841836278849597,2.036972972972973,376.84,0.0,1.48418
15.00671040393983,2.036972972972973,376.84,0.0,1.50067
15.173416073093307,2.036972972972973,376.84,0.0,1.51734
15.341973632459885,2.036972972972973,376.84,0.0,1.5342
15.512403654209539,2.036972972972973,376.84,0.0,1.55124
15.684726939043165,2.036972972972973,376.84,0.0,1.56847
15.858964518731268,2.036972972972973,376.84,0.0,1.5859
16.03513765868087,2.036972972972973,376.84,0.0,1.60351
16.213267860530888,2.036972972972973,376.84,0.0,1.62133
16.393376864776396,2.036972972972973,376.84,0.0,1.63934
16.57548665342203,2.036972972972973,376.84,0.0,1.65755
16.75961945266481,2.036972972972973,376.84,0.0,1.67596
16.945797735606863,2.036972972972973,376.84,0.0,1.69458
17.13404422499819,2.036972972972973,376.84,0.0,1.7134
17.324381896009932,2.036972972972973,376.84,0.0,1.73244
17.5168339790385,2.036972972972973,376.84,0.0,1.75168
17.711423962540767,2.036972972972973,376.84,0.0,1.77114
17.908175595900808,2.036972972972973,376.84,0.0,1.79082
18.10711289232847,2.036972972972973,376.84,0.0,1.81071
18.308260131790135,2.036972972972973,376.84,0.0,1.83083
18.511641863972084,2.036972972972973,376.84,0.0,1.85116
18.71728291127668,2.036972972972973,376.84,0.0,1.87173
18.92520837185198,2.036972972972973,376.84,0.0,1.89252
19.135443622654865,2.036972972972973,376.84,0.0,1.91354
19.34801432254828,2.036972972972973,376.84,0.0,1.9348
19.562946415432855,2.036972972972973,376.84,0.0,1.95629
19.780266133413306,2.036972972972973,376.84,0.0,1.97803
20.000000000000004,2.036972972972973,376.84,0.0,2.0
