freq,redchi,fitstat,norm,width
1.0471285480508996,2.815772357723577,692.68,0.000159453,0.114803
1.0587608285836607,2.8223170731707317,694.29,0.000127601,0.116461
1.070522329115862,2.826869918699187,695.41,0.000120247,0.117718
1.0824144851190958,2.8296341463414634,696.09,0.000109164,0.119042
1.0944387480112365,2.8313008130081303,696.5,9.16109e-05,0.120235
1.1065965853335857,2.8326829268292686,696.84,8.14048e-05,0.121685
1.1188894809299823,2.8339837398373984,697.16,7.2334e-05,0.122945
1.1313189351279025,2.8351626016260165,697.45,5.50849e-05,0.122941
1.1438864649215728,2.8360569105691056,697.67,3.28706e-05,0.125718
1.1565936041571172,2.8365447154471544,697.79,7.51227e-06,0.123531
1.1694419037197599,2.8365853658536584,697.8,0.0,0.116944
1.1824329317231081,2.8365853658536584,697.8,0.0,0.118243
1.1955682737005384,2.8365853658536584,697.8,0.0,0.119557
1.2088495327987077,2.8365853658536584,697.8,0.0,0.120885
1.2222783299732152,2.8365853658536584,697.8,0.0,0.122228
1.2358563041864368,2.8365853658536584,697.8,0.0,0.123586
1.2495851126075586,2.8365853658536584,697.8,0.0,0.124959
1.2634664308148307,2.8365853658536584,697.8,0.0,0.126347
1.2775019530000689,2.8365853658536584,697.8,0.0,0.12775
1.2916933921754286,2.8365853658536584,697.8,0.0,0.129169
1.3060424803824748,2.8365853658536584,697.8,0.0,0.130604
1.3205509689035746,2.8365853658536584,697.8,0.0,0.132055
1.3352206284756383,2.8365853658536584,697.8,0.0,0.133522
1.3500532495062354,2.8365853658536584,697.8,0.0,0.135005
1.3650506422921107,2.8365853658536584,697.8,0.0,0.136505
1.3802146372401272,2.8365853658536584,697.8,0.0,0.138021
1.3955470850906657,2.8365853658536584,697.8,0.0,0.139555
1.4110498571435033,2.8365853658536584,697.8,0.0,0.141105
1.4267248454862032,2.8365853658536584,697.8,0.0,0.142672
1.4425739632250398,2.8365853658536584,697.8,0.0,0.144257
1.4585991447184923,2.8365853658536584,697.8,0.0,0.14586
1.474802345813327,2.8364634146341463,697.77,5.07589e-06,0.135585
1.491185544083308,2.8358943089430895,697.63,2.25677e-05,0.135104
1.5077507390705542,2.8360975609756096,697.68,1.18909e-05,0.138647
1.5244999525295826,2.836138211382114,697.69,1.2969e-05,0.137303
1.5414352286740576,2.8365447154471544,697.79,1.13208e-06,0.140374
1.5585586344262863,2.8365853658536584,697.8,0.0,0.155856
1.5758722596694812,2.8365853658536584,697.8,0.0,0.157587
1.593378217502827,2.8365853658536584,697.8,0.0,0.159338
1.6110786444993823,2.8365853658536584,697.8,0.0,0.161108
1.6289757009668435,2.8365853658536584,697.8,0.0,0.162898
1.6470715712112072,2.8365853658536584,697.8,0.0,0.164707
1.6653684638033603,2.8365853658536584,697.8,0.0,0.166537
1.6838686118486341,2.8365853658536584,697.8,0.0,0.168387
1.70257427325935,2.8365853658536584,697.8,0.0,0.170257
1.7214877310303935,2.8365853658536584,697.8,0.0,0.172149
1.7406112935178513,2.8365853658536584,697.8,0.0,0.174061
1.7599472947207409,2.8365853658536584,697.8,0.0,0.175995
1.779498094565872,2.8365853658536584,697.8,0.0,0.17795
1.7992660791958721,2.8365853658536584,697.8,0.0,0.179927
1.81925366126041,2.8365853658536584,697.8,0.0,0.181925
1.839463280210657,2.8365853658536584,697.8,0.0,0.183946
1.8598974025970172,2.8365853658536584,697.8,0.0,0.18599
1.8805585223701655,2.8365853658536584,697.8,0.0,0.188056
1.901449161185431,2.8365853658536584,697.8,0.0,0.190145
1.9225718687105604,2.8365853658536584,697.8,0.0,0.192257
1.9439292229369007,2.8365853658536584,697.8,0.0,0.194393
1.9655238304940383,2.8365853658536584,697.8,0.0,0.196552
1.9873583269679354,2.8365853658536584,697.8,0.0,0.198736
2.0094353772225966,2.8365853658536584,697.8,0.0,0.200944
2.031757675725313,2.8365853658536584,697.8,0.0,0.203176
2.0543279468755165,2.8365853658536584,697.8,0.0,0.205433
2.077148945337289,2.8365853658536584,697.8,0.0,0.207715
2.100223456375563,2.836260162601626,697.72,2.65104e-05,0.222167
2.123554296196061,2.8339430894308943,697.15,6.68869e-05,0.195603
2.147144312289006,2.8297154471544714,696.11,0.000108579,0.194734
2.1709963837766555,2.8251219512195123,694.98,0.000126813,0.197531
2.1951134217646913,2.8200813008130083,693.74,0.000170552,0.19789
2.219498369697517,2.8162195121951217,692.79,0.000174159,0.200944
2.244154203717499,2.812723577235772,691.93,0.000216475,0.243066
2.269083933028201,2.8091463414634146,691.05,0.000218234,0.249488
2.2942906002616517,2.8054471544715445,690.14,0.000237883,0.252307
2.3197772818496922,2.8008536585365853,689.01,0.000268501,0.255044
2.3455470883994516,2.7945121951219516,687.45,0.000320657,0.257421
2.371603165072989,2.785691056910569,685.28,0.000393134,0.249455
2.397948691971156,2.7721951219512198,681.96,0.000413052,0.216292
2.424586884521724,2.7534146341463415,677.34,0.000563829,0.21824
2.45152099387182,2.730081300813008,671.6,0.000878931,0.22111
2.478754307284725,2.70520325203252,665.48,0.0012411,0.223088
2.50629014854108,2.6772357723577236,658.6,0.00152289,0.225566
2.5341318783445423,2.6531300813008127,652.67,0.00184556,0.228072
2.5622828947319634,2.6384146341463413,649.05,0.00205078,0.230605
2.5907466334881044,2.638577235772358,649.09,0.00204959,0.233167
2.6195265685649725,2.6523577235772358,652.48,0.00178108,0.235764
2.648626212505812,2.6746341463414636,657.96,0.00161162,0.238396
2.678049116873801,2.6952032520325204,663.02,0.00119816,0.241025
2.7077988726855153,2.715,667.89,0.000914446,0.243858
2.737879110849208,2.7332113821138213,672.37,0.000706852,0.246591
2.7682935026079525,2.750609756097561,676.65,0.000561451,0.249339
2.7990457599877123,2.7679268292682924,680.91,0.000480717,0.251915
2.8301396362503914,2.788008130081301,685.85,0.000366148,0.255559
2.8615789263519074,2.8035772357723574,689.68,0.000349023,0.314732
2.8933674674053647,2.814593495934959,692.39,0.000267654,0.318152
2.9255091391493653,2.8216666666666668,694.13,0.000233821,0.321806
2.9580078644215257,2.8252845528455284,695.02,0.000186348,0.325365
2.9908676096372515,2.82760162601626,695.59,0.000168264,0.328976
3.024092385273832,2.8291869918699186,695.98,0.000148144,0.332573
3.057686246359914,2.8303658536585363,696.27,0.000127022,0.336107
3.0916532929704084,2.831138211382114,696.46,0.000115265,0.339984
3.1259976707269,2.8315447154471545,696.56,0.000112049,0.343848
3.1607235713036137,2.8314227642276424,696.53,0.000114494,0.3475
3.195835232938998,2.830813008130081,696.38,0.000120935,0.351538
3.2313369409529997,2.8296747967479674,696.1,0.000129877,0.355157
3.267233028270078,2.828292682926829,695.76,0.000152435,0.357803
3.3035278759480278,2.826869918699187,695.41,0.000165538,0.362542
3.3402259137126866,2.8260162601626018,695.2,0.000162182,0.366231
3.377331620498571,2.826463414634146,695.31,0.000162212,0.356674
3.4148495249955215,2.8270731707317074,695.46,0.000140077,0.375614
3.452784206201428,2.828170731707317,695.73,0.00013883,0.379785
3.4911402939810827,2.8292682926829267,696.0,0.000128656,0.379824
3.52992246963125,2.830162601626016,696.22,0.000117072,0.383938
3.5691354664520105,2.830853658536585,696.39,9.64053e-05,0.392549
3.608784070324455,2.831788617886179,696.62,8.67863e-05,0.396782
3.6488731202947875,2.8326829268292686,696.84,7.85189e-05,0.401343
3.6894075091649277,2.8334959349593496,697.04,7.3507e-05,0.40573
3.73039218408967,2.8339837398373984,697.16,6.84166e-05,0.410252
3.771832147180468,2.8339837398373984,697.16,6.63635e-05,0.414858
3.8137324561159454,2.8334552845528456,697.03,7.02118e-05,0.419417
3.856098224759168,2.832357723577236,696.76,7.62889e-05,0.424053
3.898934623781784,2.830894308943089,696.4,8.62752e-05,0.428853
3.9422468812951004,2.8293902439024388,696.03,9.80001e-05,0.433381
3.9860402834881605,2.828130081300813,695.72,0.000109679,0.437899
4.030320175272916,2.8271544715447154,695.48,0.000117581,0.443015
4.075091960936564,2.826341463414634,695.28,0.000123758,0.448141
4.120361104801134,2.8252845528455284,695.02,0.000132053,0.453184
4.166133131890395,2.823577235772358,694.6,0.000145093,0.458211
4.21241362860418,2.8207317073170732,693.9,0.000164563,0.463163
4.259208243400194,2.8161788617886176,692.78,0.000192121,0.468463
4.3065226874833975,2.809837398373984,691.22,0.000226359,0.473562
4.354362735503053,2.801910569105691,689.27,0.000260705,0.478829
4.402734226257512,2.7935365853658536,687.21,0.000309951,0.484289
4.451643063406824,2.785040650406504,685.12,0.000330224,0.489565
4.501095216193276,2.7773577235772358,683.23,0.000381917,0.495093
4.551096720169926,2.7695528455284553,681.31,0.000417688,0.50062
4.601653677937228,2.760487804878049,679.08,0.000453715,0.506182
4.652772259887852,2.7482926829268295,676.08,0.000500612,0.511805
4.704458704959767,2.730894308943089,671.8,0.000565135,0.51749
4.756719321397685,2.7070325203252033,665.93,0.000623682,0.523212
4.809560487522986,2.6804471544715445,659.39,0.000796308,0.529052
4.862988652512174,2.6508943089430894,652.12,0.000929641,0.53475
4.917010337183984,2.6178048780487804,643.98,0.000947572,0.540871
4.971632134795246,2.5929268292682925,637.86,0.00103867,0.546871
5.026860711845576,2.574349593495935,633.29,0.00107191,0.552823
5.082702808891011,2.5646747967479673,630.91,0.00108073,0.559012
5.139165241366684,2.564959349593496,630.98,0.00106572,0.565261
5.196254900418639,2.5742276422764228,633.26,0.00103445,0.571578
5.2539787537448746,2.5878455284552846,636.61,0.000974082,0.576587
5.312343846445754,2.601910569105691,640.07,0.000909702,0.584265
5.371357301883837,2.6153658536585365,643.38,0.000813619,0.590799
5.431026322553275,2.6328048780487805,647.67,0.000719089,0.596778
5.491358190958871,2.6559756097560974,653.37,0.000643875,0.602147
5.5523602705048924,2.6836991869918703,660.19,0.000582264,0.610659
5.614040006393758,2.712560975609756,667.29,0.000500623,0.617473
5.676404926534721,2.739024390243902,673.8,0.000435108,0.624387
5.739462642462633,2.760569105691057,679.1,0.000372157,0.63134
5.803220850266918,2.776910569105691,683.12,0.000322638,0.638354
5.867687331530871,2.7884146341463416,685.95,0.00027082,0.64537
5.932869954281387,2.796788617886179,688.01,0.000243789,0.6526
5.9987766739492345,2.8029674796747965,689.53,0.000231873,0.659865
6.065415534340013,2.806747967479675,690.46,0.000205415,0.667064
6.132794668615875,2.8091056910569105,691.04,0.000192731,0.674556
6.200922300288177,2.810121951219512,691.29,0.000182861,0.682092
6.26980674422113,2.8109756097560976,691.5,0.000189913,0.680198
6.33945640764663,2.810569105691057,691.4,0.000167491,0.697184
6.409879791190342,2.811829268292683,691.71,0.000160455,0.704608
6.481085489909176,2.814308943089431,692.32,0.000147231,0.70963
6.553082194340318,2.817560975609756,693.12,0.000132064,0.720682
6.625878691561884,2.820975609756098,693.96,0.000119207,0.728786
6.699483866265369,2.82369918699187,694.63,0.00010197,0.736641
6.773906701840011,2.8259349593495933,695.18,0.000102338,0.745126
6.849156281469203,2.8268292682926828,695.4,8.92092e-05,0.752341
6.925241789239067,2.8272764227642275,695.51,8.63505e-05,0.760243
7.0021725112593725,2.8273170731707316,695.52,8.59442e-05,0.769872
7.079957836796883,2.8270325203252034,695.45,8.66326e-05,0.778336
7.158607259421295,2.8265040650406505,695.32,8.91572e-05,0.78588
7.238130378163925,2.825487804878049,695.07,9.31093e-05,0.795787
7.318536898689247,2.8241463414634147,694.74,9.82784e-05,0.803499
7.399836634479451,2.8228048780487804,694.41,0.000107567,0.812558
7.482039508032168,2.8219918699186994,694.21,0.000113208,0.822419
7.565155552071494,2.8221544715447155,694.25,0.000115109,0.798784
7.649194910772461,2.8228455284552845,694.42,0.00010981,0.838421
7.734167840999122,2.82390243902439,694.68,0.00010726,0.850584
7.820084713556388,2.8248373983739836,694.91,0.000104737,0.860063
7.906956014455753,2.825487804878049,695.07,0.000100768,0.867736
7.994792346195112,2.826178861788618,695.24,9.54353e-05,0.876741
8.083604429052771,2.8270731707317074,695.46,8.97919e-05,0.886189
8.173403102395827,2.828089430894309,695.71,8.51719e-05,0.892247
8.264199326003121,2.828861788617886,695.9,7.6509e-05,0.907948
8.356004181402835,2.8292276422764226,695.99,7.37977e-05,0.918055
8.448828873224988,2.8292682926829267,696.0,7.47202e-05,0.91429
8.542684730568942,2.82890243902439,695.91,7.10261e-05,0.844719
8.637583208386094,2.828089430894309,695.71,6.73329e-05,0.786182
8.733535888877936,2.828008130081301,695.69,6.27104e-05,0.791487
8.830554482909648,2.8290243902439025,695.94,5.42799e-05,0.805249
8.928650831439386,2.8303252032520323,696.26,5.15754e-05,0.803612
9.027836906963444,2.832479674796748,696.79,3.70792e-05,0.812506
9.128124814977493,2.8345934959349592,697.31,2.25996e-05,0.821684
9.229526795454028,2.8360569105691056,697.67,1.32988e-05,0.834227
9.332055224336228,2.8365853658536584,697.8,0.0,0.933206
9.435722615048434,2.8365853658536584,697.8,0.0,0.943572
9.54054162002339,2.8365853658536584,697.8,0.0,0.954054
9.646525032246434,2.8365853658536584,697.8,0.0,0.964653
9.753685786816883,2.8365853658536584,697.8,0.0,0.975369
9.862036962526732,2.8365853658536584,697.8,0.0,0.986204
9.971591783456889,2.8365853658536584,697.8,0.0,0.997159
10.082363620591163,2.8365853658536584,697.8,0.0,1.00824
10.194365993448185,2.8365853658536584,697.8,0.0,1.01944
10.307612571731394,2.8365853658536584,697.8,0.0,1.03076
10.422117176997459,2.8365853658536584,697.8,0.0,1.04221
10.537893784343142,2.8365853658536584,697.8,0.0,1.05379
10.654956524110943,2.8365853658536584,697.8,0.0,1.0655
10.7733196836137,2.8365853658536584,697.8,0.0,1.07733
10.892997708878294,2.8365853658536584,697.8,0.0,1.0893
11.014005206408806,2.8365853658536584,697.8,0.0,1.1014
11.13635694496919,2.8365853658536584,697.8,0.0,1.11364
11.260067857385788,2.8365853658536584,697.8,0.0,1.12601
11.38515304236985,2.8365853658536584,697.8,0.0,1.13852
11.511627766360313,2.8365853658536584,697.8,0.0,1.15116
11.639507465387025,2.8365853658536584,697.8,0.0,1.16395
11.768807746954717,2.8365853658536584,697.8,0.0,1.17688
11.899544391947854,2.8365853658536584,697.8,0.0,1.18995
12.031733356556671,2.8365853658536584,697.8,0.0,1.20317
12.165390774224598,2.8365853658536584,697.8,0.0,1.21654
12.300532957617323,2.8365853658536584,697.8,0.0,1.23005
12.437176400613707,2.8365853658536584,697.8,0.0,1.24372
12.575337780318868,2.8365853658536584,697.8,0.0,1.25753
12.715033959099575,2.8365853658536584,697.8,0.0,1.2715
12.856281986642266,2.8365853658536584,697.8,0.0,1.28563
12.999099102033945,2.8365853658536584,697.8,0.0,1.29991
13.143502735866187,2.8365853658536584,697.8,0.0,1.31435
13.289510512362487,2.8365853658536584,697.8,0.0,1.32895
13.4371402515293,2.8365853658536584,697.8,0.0,1.34371
13.58640997133093,2.8365853658536584,697.8,0.0,1.35864
13.73733788988859,2.8365853658536584,697.8,0.0,1.37373
13.88994242770389,2.8365853658536584,697.8,0.0,1.38899
14.044242209907045,2.8365853658536584,697.8,0.0,1.40442
14.200256068530011,2.8365853658536584,697.8,0.0,1.42003
14.35800304480494,2.8365853658536584,697.8,0.0,1.4358
14.517502391488105,2.8365853658536584,697.8,0.0,1.45175
14.678773575209679,2.8365853658536584,697.8,0.0,1.46788
14.841836278849597,2.8365853658536584,697.8,0.0,1.48418
15.00671040393983,2.8365853658536584,697.8,0.0,1.50067
15.173416073093307,2.8365853658536584,697.8,0.0,1.51734
15.341973632459885,2.8365853658536584,697.8,0.0,1.5342
15.512403654209539,2.8365853658536584,697.8,0.0,1.55124
15.684726939043165,2.8365853658536584,697.8,0.0,1.56847
15.858964518731268,2.8365853658536584,697.8,0.0,1.5859
16.03513765868087,2.8365853658536584,697.8,0.0,1.60351
16.213267860530888,2.8365853658536584,697.8,0.0,1.62133
16.393376864776396,2.8365853658536584,697.8,0.0,1.63934
16.57548665342203,2.8365853658536584,697.8,0.0,1.65755
16.75961945266481,2.8365853658536584,697.8,0.0,1.67596
16.945797735606863,2.8365853658536584,697.8,0.0,1.69458
17.13404422499819,2.8365853658536584,697.8,0.0,1.7134
17.324381896009932,2.8365853658536584,697.8,0.0,1.73244
17.5168339790385,2.8365853658536584,697.8,0.0,1.75168
17.711423962540767,2.8365853658536584,697.8,0.0,1.77114
17.908175595900808,2.8365853658536584,697.8,0.0,1.79082
18.10711289232847,2.8365853658536584,697.8,0.0,1.81071
18.308260131790135,2.8365853658536584,697.8,0.0,1.83083
18.511641863972084,2.8365853658536584,697.8,0.0,1.85116
18.71728291127668,2.8365853658536584,697.8,0.0,1.87173
18.92520837185198,2.8365853658536584,697.8,0.0,1.89252
19.135443622654865,2.8365853658536584,697.8,0.0,1.91354
19.34801432254828,2.8365853658536584,697.8,0.0,1.9348
19.562946415432855,2.8365853658536584,697.8,0.0,1.95629
19.780266133413306,2.8365853658536584,697.8,0.0,1.97803
20.000000000000004,2.8365853658536584,697.8,0.0,2.0
