,freq,redchi,norm,width
0,1.0471285480508996,5.029837398373983,6.90766e-06,0.0943623
1,1.0587608285836607,5.03,9.28726e-06,0.0952912
2,1.070522329115862,5.030447154471545,0.0,0.107052
3,1.0824144851190958,5.030447154471545,0.0,0.108241
4,1.0944387480112365,5.030447154471545,0.0,0.109444
5,1.1065965853335857,5.030447154471545,0.0,0.11066
6,1.1188894809299823,5.030447154471545,0.0,0.111889
7,1.1313189351279025,5.030447154471545,0.0,0.113132
8,1.1438864649215728,5.030447154471545,0.0,0.114389
9,1.1565936041571172,5.030447154471545,0.0,0.115659
10,1.1694419037197599,5.030447154471545,0.0,0.116944
11,1.1824329317231081,5.030447154471545,0.0,0.118243
12,1.1955682737005384,5.030447154471545,0.0,0.119557
13,1.2088495327987077,5.030447154471545,0.0,0.120885
14,1.2222783299732152,5.030447154471545,0.0,0.122228
15,1.2358563041864368,5.030447154471545,0.0,0.123586
16,1.2495851126075586,5.030447154471545,0.0,0.124959
17,1.2634664308148307,5.030447154471545,0.0,0.126347
18,1.2775019530000689,5.030447154471545,0.0,0.12775
19,1.2916933921754286,5.030447154471545,0.0,0.129169
20,1.3060424803824748,5.030447154471545,0.0,0.130604
21,1.3205509689035746,5.030447154471545,0.0,0.132055
22,1.3352206284756383,5.030447154471545,0.0,0.133522
23,1.3500532495062354,5.030447154471545,0.0,0.135005
24,1.3650506422921107,5.030447154471545,0.0,0.136505
25,1.3802146372401272,5.030447154471545,0.0,0.138021
26,1.3955470850906657,5.030447154471545,0.0,0.139555
27,1.4110498571435033,5.030447154471545,0.0,0.141105
28,1.4267248454862032,5.030447154471545,0.0,0.142672
29,1.4425739632250398,5.030447154471545,0.0,0.144257
30,1.4585991447184923,5.030447154471545,0.0,0.14586
31,1.474802345813327,5.030447154471545,0.0,0.14748
32,1.491185544083308,5.030447154471545,0.0,0.149119
33,1.5077507390705542,5.030447154471545,0.0,0.150775
34,1.5244999525295826,5.030447154471545,0.0,0.15245
35,1.5414352286740576,5.030447154471545,0.0,0.154144
36,1.5585586344262863,5.030447154471545,0.0,0.155856
37,1.5758722596694812,5.030447154471545,0.0,0.157587
38,1.593378217502827,5.030447154471545,0.0,0.159338
39,1.6110786444993823,5.030447154471545,0.0,0.161108
40,1.6289757009668435,5.030447154471545,0.0,0.162898
41,1.6470715712112072,5.030447154471545,0.0,0.164707
42,1.6653684638033603,5.030447154471545,0.0,0.166537
43,1.6838686118486341,5.030447154471545,0.0,0.168387
44,1.70257427325935,5.030447154471545,0.0,0.170257
45,1.7214877310303935,5.030447154471545,0.0,0.172149
46,1.7406112935178513,5.030447154471545,0.0,0.174061
47,1.7599472947207409,5.030447154471545,0.0,0.175995
48,1.779498094565872,5.030447154471545,0.0,0.17795
49,1.7992660791958721,5.030447154471545,0.0,0.179927
50,1.81925366126041,5.030447154471545,0.0,0.181925
51,1.839463280210657,5.030447154471545,0.0,0.183946
52,1.8598974025970172,5.030447154471545,0.0,0.18599
53,1.8805585223701655,5.030447154471545,0.0,0.188056
54,1.901449161185431,5.030447154471545,0.0,0.190145
55,1.9225718687105604,5.030447154471545,0.0,0.192257
56,1.9439292229369007,5.030447154471545,0.0,0.194393
57,1.9655238304940383,5.030447154471545,0.0,0.196552
58,1.9873583269679354,5.030447154471545,0.0,0.198736
59,2.0094353772225966,5.030447154471545,0.0,0.200944
60,2.031757675725313,5.030447154471545,0.0,0.203176
61,2.0543279468755165,5.030447154471545,0.0,0.205433
62,2.077148945337289,5.030447154471545,0.0,0.207715
63,2.100223456375563,5.030447154471545,0.0,0.210022
64,2.123554296196061,5.030447154471545,0.0,0.212355
65,2.147144312289006,5.030447154471545,0.0,0.214714
66,2.1709963837766555,5.030447154471545,0.0,0.2171
67,2.1951134217646913,5.030447154471545,0.0,0.219511
68,2.219498369697517,5.030447154471545,0.0,0.22195
69,2.244154203717499,5.030447154471545,0.0,0.224415
70,2.269083933028201,5.030447154471545,0.0,0.226908
71,2.2942906002616517,5.029593495934959,1.95392e-05,0.251564
72,2.3197772818496922,5.025894308943089,4.38728e-05,0.244493
73,2.3455470883994516,5.0182113821138215,6.62914e-05,0.211248
74,2.371603165072989,5.007073170731707,9.64463e-05,0.214184
75,2.397948691971156,4.993536585365854,0.000118066,0.21582
76,2.424586884521724,4.976829268292683,0.000162384,0.218224
77,2.45152099387182,4.957520325203252,0.000212593,0.235576
78,2.478754307284725,4.933414634146341,0.000271219,0.253655
79,2.50629014854108,4.903211382113821,0.000333503,0.251058
80,2.5341318783445423,4.866219512195122,0.000407856,0.246371
81,2.5622828947319634,4.8221138211382115,0.00050469,0.253381
82,2.5907466334881044,4.768455284552846,0.000626293,0.260709
83,2.6195265685649725,4.699634146341463,0.000777385,0.256786
84,2.648626212505812,4.606463414634146,0.00097415,0.239559
85,2.678049116873801,4.478536585365854,0.0012428,0.241028
86,2.7077988726855153,4.315569105691058,0.00161104,0.243732
87,2.737879110849208,4.138617886178862,0.00199287,0.24642
88,2.7682935026079525,3.981788617886179,0.0022831,0.249154
89,2.7990457599877123,3.863617886178862,0.00252845,0.251919
90,2.8301396362503914,3.7894715447154472,0.00274698,0.254724
91,2.8615789263519074,3.7671951219512194,0.00288161,0.257547
92,2.8933674674053647,3.7977235772357725,0.00286063,0.260425
93,2.9255091391493653,3.8689837398373985,0.00268434,0.26331
94,2.9580078644215257,3.9647967479674797,0.00240624,0.266221
95,2.9908676096372515,4.073252032520325,0.00207261,0.269185
96,3.024092385273832,4.185162601626016,0.00173456,0.272212
97,3.057686246359914,4.293373983739838,0.00143389,0.275196
98,3.0916532929704084,4.3950000000000005,0.00118142,0.278261
99,3.1259976707269,4.491016260162602,0.000970398,0.281364
100,3.1607235713036137,4.58109756097561,0.000791707,0.28447
101,3.195835232938998,4.663617886178862,0.000635427,0.287626
102,3.2313369409529997,4.7368699186991865,0.000500764,0.290855
103,3.267233028270078,4.799430894308943,0.000390258,0.294064
104,3.3035278759480278,4.852073170731707,0.00030533,0.297322
105,3.3402259137126866,4.896829268292683,0.000244045,0.300622
106,3.377331620498571,4.935284552845528,0.000205042,0.303977
107,3.4148495249955215,4.967520325203252,0.0001772,0.373821
108,3.452784206201428,4.991869918699187,0.000137345,0.379781
109,3.4911402939810827,5.0094308943089425,9.65758e-05,0.383989
110,3.52992246963125,5.020569105691057,6.83413e-05,0.38823
111,3.5691354664520105,5.02630081300813,4.60395e-05,0.392341
112,3.608784070324455,5.028821138211382,3.22641e-05,0.39673
113,3.6488731202947875,5.029593495934959,1.29881e-05,0.40127
114,3.6894075091649277,5.030162601626016,1.75629e-05,0.399672
115,3.73039218408967,5.0303252032520325,1.03758e-05,0.404771
116,3.771832147180468,5.030447154471545,5.11608e-07,0.396906
117,3.8137324561159454,5.030447154471545,0.0,0.381373
118,3.856098224759168,5.030447154471545,0.0,0.38561
119,3.898934623781784,5.030447154471545,0.0,0.389893
120,3.9422468812951004,5.030447154471545,0.0,0.394225
121,3.9860402834881605,5.030447154471545,0.0,0.398604
122,4.030320175272916,5.030447154471545,0.0,0.403032
123,4.075091960936564,5.030447154471545,0.0,0.407509
124,4.120361104801134,5.030447154471545,0.0,0.412036
125,4.166133131890395,5.030447154471545,0.0,0.416613
126,4.21241362860418,5.030447154471545,0.0,0.421241
127,4.259208243400194,5.030447154471545,0.0,0.425921
128,4.3065226874833975,5.030447154471545,0.0,0.430652
129,4.354362735503053,5.030447154471545,0.0,0.435436
130,4.402734226257512,5.030447154471545,0.0,0.440273
131,4.451643063406824,5.030447154471545,0.0,0.445164
132,4.501095216193276,5.030447154471545,0.0,0.45011
133,4.551096720169926,5.030447154471545,0.0,0.45511
134,4.601653677937228,5.030081300813008,1.69456e-05,0.50567
135,4.652772259887852,5.027154471544716,3.09069e-05,0.511396
136,4.704458704959767,5.0219918699187,4.66151e-05,0.517228
137,4.756719321397685,5.014430894308943,6.31367e-05,0.522941
138,4.809560487522986,5.003739837398374,8.17902e-05,0.528984
139,4.862988652512174,4.988577235772358,0.000104246,0.534925
140,4.917010337183984,4.967276422764228,0.000130824,0.540811
141,4.971632134795246,4.938252032520325,0.000169427,0.54688
142,5.026860711845576,4.898821138211382,0.000211392,0.552953
143,5.082702808891011,4.8464227642276425,0.000254355,0.558977
144,5.139165241366684,4.779674796747967,0.000325846,0.565307
145,5.196254900418639,4.697845528455285,0.000422429,0.571588
146,5.2539787537448746,4.5947154471544716,0.000501438,0.577937
147,5.312343846445754,4.4765853658536585,0.0006141,0.584338
148,5.371357301883837,4.33849593495935,0.00069516,0.590741
149,5.431026322553275,4.195162601626016,0.000777886,0.596976
150,5.491358190958871,4.0582520325203255,0.00085704,0.558003
151,5.5523602705048924,3.9475609756097563,0.000919732,0.545737
152,5.614040006393758,3.883821138211382,0.000950601,0.559602
153,5.676404926534721,3.870162601626016,0.000946298,0.591977
154,5.739462642462633,3.895487804878049,0.000914373,0.627049
155,5.803220850266918,3.948130081300813,0.000869746,0.638308
156,5.867687331530871,4.019227642276423,0.000815666,0.645354
157,5.932869954281387,4.101869918699187,0.000757474,0.652603
158,5.9987766739492345,4.192439024390244,0.000699978,0.659859
159,6.065415534340013,4.287560975609757,0.000645684,0.667168
160,6.132794668615875,4.373170731707317,0.000552161,0.674607
161,6.200922300288177,4.458495934959349,0.000475154,0.682094
162,6.26980674422113,4.538739837398374,0.000424753,0.689679
163,6.33945640764663,4.6101626016260155,0.00037802,0.697339
164,6.409879791190342,4.672642276422764,0.000336448,0.705086
165,6.481085489909176,4.72760162601626,0.000299498,0.712919
166,6.553082194340318,4.776178861788618,0.000265682,0.720839
167,6.625878691561884,4.820040650406504,0.000241198,0.72573
168,6.699483866265369,4.855406504065041,0.000200879,0.736906
169,6.773906701840011,4.887967479674797,0.000184031,0.745123
170,6.849156281469203,4.916300813008131,0.00016109,0.753407
171,6.925241789239067,4.940447154471545,0.000135527,0.761728
172,7.0021725112593725,4.960325203252032,0.000118003,0.770221
173,7.079957836796883,4.974878048780488,0.000102906,0.778787
174,7.158607259421295,4.984552845528455,9.17126e-05,0.787423
175,7.238130378163925,4.990365853658537,8.36585e-05,0.796038
176,7.318536898689247,4.993739837398374,7.79703e-05,0.805022
177,7.399836634479451,4.996138211382114,7.41042e-05,0.813948
178,7.482039508032168,4.998373983739837,7.04268e-05,0.822935
179,7.565155552071494,5.000569105691057,6.73097e-05,0.831783
180,7.649194910772461,5.002235772357723,6.49551e-05,0.841393
181,7.734167840999122,5.003089430894309,6.32255e-05,0.850668
182,7.820084713556388,5.003211382113821,6.18298e-05,0.859934
183,7.906956014455753,5.002886178861789,6.08335e-05,0.869435
184,7.994792346195112,5.002560975609756,6.0259e-05,0.878483
185,8.083604429052771,5.002357723577235,6.03057e-05,0.88834
186,8.173403102395827,5.001910569105691,6.08143e-05,0.899001
187,8.264199326003121,5.000731707317073,6.15346e-05,0.909034
188,8.356004181402835,4.998861788617886,6.59563e-05,0.919083
189,8.448828873224988,4.996138211382114,6.65615e-05,0.928889
190,8.542684730568942,4.993658536585366,6.54574e-05,0.937786
191,8.637583208386094,4.992439024390245,6.85783e-05,0.947737
192,8.733535888877936,4.992642276422765,5.97222e-05,0.789773
193,8.830554482909648,4.995650406504065,5.80429e-05,0.810451
194,8.928650831439386,5.0008130081300814,6.51826e-05,0.96839
195,9.027836906963444,5.005650406504065,5.63926e-05,0.993058
196,9.128124814977493,5.01020325203252,4.95785e-05,1.00365
197,9.229526795454028,5.013861788617887,4.71635e-05,1.01515
198,9.332055224336228,5.0165447154471545,4.06063e-05,1.02515
199,9.435722615048434,5.019065040650407,3.75719e-05,1.03669
200,9.54054162002339,5.021747967479675,3.40959e-05,1.02145
201,9.646525032246434,5.024430894308943,2.87959e-05,1.06109
202,9.753685786816883,5.0268699186991865,2.20857e-05,1.05871
203,9.862036962526732,5.0286178861788615,1.54432e-05,1.08234
204,9.971591783456889,5.029756097560975,1.10973e-05,1.0956
205,10.082363620591163,5.030243902439024,3.48688e-06,1.10632
206,10.194365993448185,5.0304065040650405,6.43407e-07,1.11984
207,10.307612571731394,5.030447154471545,0.0,1.03076
208,10.422117176997459,5.030447154471545,3.52776e-07,1.10793
209,10.537893784343142,5.0303658536585365,3.80465e-06,1.14825
210,10.654956524110943,5.03020325203252,4.06878e-06,0.980011
211,10.7733196836137,5.029878048780487,6.43058e-06,0.980573
212,10.892997708878294,5.029756097560975,6.788e-06,0.984504
213,11.014005206408806,5.029918699186991,5.71646e-06,0.99379
214,11.13635694496919,5.03020325203252,3.79958e-06,1.00528
215,11.260067857385788,5.0304065040650405,1.64032e-06,1.03653
216,11.38515304236985,5.030447154471545,0.0,1.13852
217,11.511627766360313,5.030447154471545,0.0,1.15116
218,11.639507465387025,5.030447154471545,0.0,1.16395
219,11.768807746954717,5.030447154471545,0.0,1.17688
220,11.899544391947854,5.030447154471545,0.0,1.18995
221,12.031733356556671,5.030447154471545,0.0,1.20317
222,12.165390774224598,5.030447154471545,0.0,1.21654
223,12.300532957617323,5.030447154471545,0.0,1.23005
224,12.437176400613707,5.030447154471545,0.0,1.24372
225,12.575337780318868,5.030447154471545,0.0,1.25753
226,12.715033959099575,5.030447154471545,0.0,1.2715
227,12.856281986642266,5.030447154471545,0.0,1.28563
228,12.999099102033945,5.030447154471545,0.0,1.29991
229,13.143502735866187,5.030447154471545,0.0,1.31435
230,13.289510512362487,5.030447154471545,0.0,1.32895
231,13.4371402515293,5.030447154471545,0.0,1.34371
232,13.58640997133093,5.030447154471545,0.0,1.35864
233,13.73733788988859,5.030447154471545,0.0,1.37373
234,13.88994242770389,5.030447154471545,0.0,1.38899
235,14.044242209907045,5.030447154471545,0.0,1.40442
236,14.200256068530011,5.030447154471545,0.0,1.42003
237,14.35800304480494,5.030447154471545,0.0,1.4358
238,14.517502391488105,5.030447154471545,0.0,1.45175
239,14.678773575209679,5.030447154471545,0.0,1.46788
240,14.841836278849597,5.030447154471545,0.0,1.48418
241,15.00671040393983,5.030447154471545,0.0,1.50067
242,15.173416073093307,5.030447154471545,0.0,1.51734
243,15.341973632459885,5.030447154471545,0.0,1.5342
244,15.512403654209539,5.030447154471545,0.0,1.55124
245,15.684726939043165,5.030447154471545,0.0,1.56847
246,15.858964518731268,5.030447154471545,0.0,1.5859
247,16.03513765868087,5.030447154471545,0.0,1.60351
248,16.213267860530888,5.030447154471545,0.0,1.62133
249,16.393376864776396,5.030447154471545,0.0,1.63934
250,16.57548665342203,5.030447154471545,0.0,1.65755
251,16.75961945266481,5.030447154471545,0.0,1.67596
252,16.945797735606863,5.030447154471545,0.0,1.69458
253,17.13404422499819,5.030447154471545,0.0,1.7134
254,17.324381896009932,5.030447154471545,0.0,1.73244
255,17.5168339790385,5.030447154471545,0.0,1.75168
256,17.711423962540767,5.030447154471545,0.0,1.77114
257,17.908175595900808,5.030447154471545,0.0,1.79082
258,18.10711289232847,5.030447154471545,0.0,1.81071
259,18.308260131790135,5.030447154471545,0.0,1.83083
260,18.511641863972084,5.030447154471545,0.0,1.85116
261,18.71728291127668,5.030447154471545,0.0,1.87173
262,18.92520837185198,5.030447154471545,0.0,1.89252
263,19.135443622654865,5.030447154471545,0.0,1.91354
264,19.34801432254828,5.030447154471545,0.0,1.9348
265,19.562946415432855,5.030447154471545,0.0,1.95629
266,19.780266133413306,5.030447154471545,0.0,1.97803
267,20.000000000000004,5.030447154471545,0.0,2.0
