,freq,redchi,norm,width
0,1.0471285480508996,5.659796747967479,4.79608e-05,0.115121
1,1.0587608285836607,5.662317073170732,3.63369e-05,0.116006
2,1.070522329115862,5.6640243902439025,2.52722e-05,0.117647
3,1.0824144851190958,5.664918699186992,7.11099e-06,0.118779
4,1.0944387480112365,5.665162601626017,0.0,0.109444
5,1.1065965853335857,5.665162601626017,0.0,0.11066
6,1.1188894809299823,5.665162601626017,0.0,0.111889
7,1.1313189351279025,5.665162601626017,0.0,0.113132
8,1.1438864649215728,5.665162601626017,0.0,0.114389
9,1.1565936041571172,5.665162601626017,0.0,0.115659
10,1.1694419037197599,5.665162601626017,0.0,0.116944
11,1.1824329317231081,5.665162601626017,0.0,0.118243
12,1.1955682737005384,5.665162601626017,0.0,0.119557
13,1.2088495327987077,5.665162601626017,0.0,0.120885
14,1.2222783299732152,5.665162601626017,0.0,0.122228
15,1.2358563041864368,5.665162601626017,0.0,0.123586
16,1.2495851126075586,5.665162601626017,0.0,0.124959
17,1.2634664308148307,5.665162601626017,0.0,0.126347
18,1.2775019530000689,5.665162601626017,0.0,0.12775
19,1.2916933921754286,5.665162601626017,0.0,0.129169
20,1.3060424803824748,5.665162601626017,0.0,0.130604
21,1.3205509689035746,5.665162601626017,0.0,0.132055
22,1.3352206284756383,5.665162601626017,0.0,0.133522
23,1.3500532495062354,5.665162601626017,0.0,0.135005
24,1.3650506422921107,5.665162601626017,0.0,0.136505
25,1.3802146372401272,5.665162601626017,0.0,0.138021
26,1.3955470850906657,5.665162601626017,0.0,0.139555
27,1.4110498571435033,5.665162601626017,0.0,0.141105
28,1.4267248454862032,5.665162601626017,0.0,0.142672
29,1.4425739632250398,5.665162601626017,0.0,0.144257
30,1.4585991447184923,5.665162601626017,0.0,0.14586
31,1.474802345813327,5.665162601626017,0.0,0.14748
32,1.491185544083308,5.665162601626017,0.0,0.149119
33,1.5077507390705542,5.665162601626017,0.0,0.150775
34,1.5244999525295826,5.665162601626017,0.0,0.15245
35,1.5414352286740576,5.665162601626017,0.0,0.154144
36,1.5585586344262863,5.665162601626017,0.0,0.155856
37,1.5758722596694812,5.665162601626017,0.0,0.157587
38,1.593378217502827,5.665162601626017,0.0,0.159338
39,1.6110786444993823,5.665162601626017,0.0,0.161108
40,1.6289757009668435,5.665162601626017,0.0,0.162898
41,1.6470715712112072,5.665162601626017,0.0,0.164707
42,1.6653684638033603,5.665162601626017,0.0,0.166537
43,1.6838686118486341,5.665162601626017,0.0,0.168387
44,1.70257427325935,5.665162601626017,0.0,0.170257
45,1.7214877310303935,5.665162601626017,0.0,0.172149
46,1.7406112935178513,5.665162601626017,0.0,0.174061
47,1.7599472947207409,5.665162601626017,0.0,0.175995
48,1.779498094565872,5.665162601626017,0.0,0.17795
49,1.7992660791958721,5.665162601626017,0.0,0.179927
50,1.81925366126041,5.665162601626017,0.0,0.181925
51,1.839463280210657,5.665162601626017,0.0,0.183946
52,1.8598974025970172,5.665162601626017,0.0,0.18599
53,1.8805585223701655,5.665162601626017,0.0,0.188056
54,1.901449161185431,5.665162601626017,0.0,0.190145
55,1.9225718687105604,5.665162601626017,0.0,0.192257
56,1.9439292229369007,5.665162601626017,0.0,0.194393
57,1.9655238304940383,5.665162601626017,0.0,0.196552
58,1.9873583269679354,5.665162601626017,0.0,0.198736
59,2.0094353772225966,5.665162601626017,0.0,0.200944
60,2.031757675725313,5.665162601626017,0.0,0.203176
61,2.0543279468755165,5.665162601626017,0.0,0.205433
62,2.077148945337289,5.665162601626017,0.0,0.207715
63,2.100223456375563,5.665162601626017,0.0,0.210022
64,2.123554296196061,5.665162601626017,0.0,0.212355
65,2.147144312289006,5.665162601626017,0.0,0.214714
66,2.1709963837766555,5.665162601626017,0.0,0.2171
67,2.1951134217646913,5.665162601626017,0.0,0.219511
68,2.219498369697517,5.665162601626017,0.0,0.22195
69,2.244154203717499,5.665162601626017,0.0,0.224415
70,2.269083933028201,5.665162601626017,0.0,0.226908
71,2.2942906002616517,5.665162601626017,0.0,0.229429
72,2.3197772818496922,5.665162601626017,0.0,0.231978
73,2.3455470883994516,5.665162601626017,0.0,0.234555
74,2.371603165072989,5.665162601626017,0.0,0.23716
75,2.397948691971156,5.665162601626017,0.0,0.239795
76,2.424586884521724,5.665162601626017,0.0,0.242459
77,2.45152099387182,5.665162601626017,0.0,0.245152
78,2.478754307284725,5.665162601626017,0.0,0.247875
79,2.50629014854108,5.665162601626017,0.0,0.250629
80,2.5341318783445423,5.665162601626017,0.0,0.253413
81,2.5622828947319634,5.665162601626017,0.0,0.256228
82,2.5907466334881044,5.665162601626017,0.0,0.259075
83,2.6195265685649725,5.665162601626017,0.0,0.261953
84,2.648626212505812,5.665162601626017,0.0,0.264863
85,2.678049116873801,5.665162601626017,0.0,0.267805
86,2.7077988726855153,5.664878048780488,5.70827e-06,0.254007
87,2.737879110849208,5.6640650406504065,1.53315e-05,0.273191
88,2.7682935026079525,5.6625203252032525,2.65293e-05,0.301042
89,2.7990457599877123,5.659918699186991,4.00518e-05,0.307385
90,2.8301396362503914,5.6553658536585365,5.41991e-05,0.31083
91,2.8615789263519074,5.647560975609756,8.2701e-05,0.31457
92,2.8933674674053647,5.63430894308943,0.000119632,0.313555
93,2.9255091391493653,5.611788617886178,0.000150726,0.263826
94,2.9580078644215257,5.578089430894309,0.000214746,0.266231
95,2.9908676096372515,5.534227642276423,0.000292213,0.269182
96,3.024092385273832,5.483373983739837,0.000376366,0.27226
97,3.057686246359914,5.4278455284552845,0.000478302,0.275232
98,3.0916532929704084,5.367317073170732,0.000617973,0.278321
99,3.1259976707269,5.2941869918699185,0.000802051,0.281425
100,3.1607235713036137,5.192804878048781,0.00105162,0.284466
101,3.195835232938998,5.052195121951219,0.00143325,0.287633
102,3.2313369409529997,4.87959349593496,0.00190867,0.290825
103,3.267233028270078,4.689756097560976,0.00229141,0.294052
104,3.3035278759480278,4.512682926829267,0.00254509,0.297318
105,3.3402259137126866,4.375040650406504,0.00273163,0.300629
106,3.377331620498571,4.293861788617886,0.00286687,0.303966
107,3.4148495249955215,4.286341463414634,0.00284516,0.307337
108,3.452784206201428,4.345731707317073,0.00253436,0.310769
109,3.4911402939810827,4.452113821138211,0.00208065,0.31423
110,3.52992246963125,4.5686585365853665,0.00173346,0.317723
111,3.5691354664520105,4.6658130081300815,0.00149006,0.329202
112,3.608784070324455,4.7457723577235775,0.00129108,0.325012
113,3.6488731202947875,4.831178861788618,0.00111213,0.328451
114,3.6894075091649277,4.9402032520325205,0.000946728,0.33214
115,3.73039218408967,5.059959349593496,0.000804113,0.352638
116,3.771832147180468,5.156016260162602,0.000703189,0.414887
117,3.8137324561159454,5.2330081300813,0.000630733,0.419461
118,3.856098224759168,5.288333333333334,0.000526987,0.424167
119,3.898934623781784,5.336138211382114,0.000490124,0.428842
120,3.9422468812951004,5.373658536585366,0.000421071,0.43362
121,3.9860402834881605,5.413130081300814,0.00035629,0.438427
122,4.030320175272916,5.455772357723577,0.000321361,0.443332
123,4.075091960936564,5.494146341463415,0.000257454,0.44821
124,4.120361104801134,5.528170731707317,0.000221175,0.453216
125,4.166133131890395,5.555406504065041,0.00019417,0.458257
126,4.21241362860418,5.5754878048780485,0.000164351,0.463245
127,4.259208243400194,5.592357723577236,0.000160792,0.463702
128,4.3065226874833975,5.603780487804878,0.000137683,0.473717
129,4.354362735503053,5.615121951219512,0.0001185,0.478957
130,4.402734226257512,5.626178861788618,0.000107672,0.484286
131,4.451643063406824,5.634837398373984,8.34123e-05,0.489539
132,4.501095216193276,5.642439024390244,6.52271e-05,0.494844
133,4.551096720169926,5.648577235772358,5.32734e-05,0.500173
134,4.601653677937228,5.653495934959349,4.5048e-05,0.505724
135,4.652772259887852,5.657520325203252,3.46537e-05,0.508033
136,4.704458704959767,5.660894308943089,2.17175e-05,0.426249
137,4.756719321397685,5.663536585365854,1.31616e-05,0.428891
138,4.809560487522986,5.665081300813008,3.05798e-06,0.528433
139,4.862988652512174,5.665162601626017,0.0,0.486299
140,4.917010337183984,5.665162601626017,0.0,0.491701
141,4.971632134795246,5.665162601626017,0.0,0.497163
142,5.026860711845576,5.665162601626017,0.0,0.502686
143,5.082702808891011,5.665162601626017,0.0,0.50827
144,5.139165241366684,5.665162601626017,0.0,0.513917
145,5.196254900418639,5.665162601626017,0.0,0.519625
146,5.2539787537448746,5.665162601626017,0.0,0.525398
147,5.312343846445754,5.665162601626017,0.0,0.531234
148,5.371357301883837,5.665162601626017,0.0,0.537136
149,5.431026322553275,5.665162601626017,0.0,0.543103
150,5.491358190958871,5.664959349593496,3.7197e-06,0.603582
151,5.5523602705048924,5.663821138211382,1.17326e-05,0.610533
152,5.614040006393758,5.661788617886178,3.0035e-05,0.617503
153,5.676404926534721,5.657276422764228,4.21308e-05,0.624367
154,5.739462642462633,5.649105691056911,5.71107e-05,0.631335
155,5.803220850266918,5.635772357723577,7.43332e-05,0.638292
156,5.867687331530871,5.616219512195122,9.55029e-05,0.645218
157,5.932869954281387,5.589756097560976,0.000125901,0.652616
158,5.9987766739492345,5.55430894308943,0.000150278,0.659837
159,6.065415534340013,5.510365853658536,0.000192372,0.667196
160,6.132794668615875,5.455365853658536,0.000233838,0.674605
161,6.200922300288177,5.387276422764227,0.000287228,0.682101
162,6.26980674422113,5.300243902439024,0.000341748,0.689645
163,6.33945640764663,5.189674796747968,0.000449538,0.697336
164,6.409879791190342,5.049918699186992,0.000546698,0.705049
165,6.481085489909176,4.8862195121951215,0.000641059,0.656228
166,6.553082194340318,4.706138211382114,0.000745883,0.598732
167,6.625878691561884,4.54109756097561,0.000832936,0.596484
168,6.699483866265369,4.4244715447154475,0.000882786,0.602954
169,6.773906701840011,4.379634146341464,0.000887215,0.609869
170,6.849156281469203,4.412967479674797,0.000857683,0.640841
171,6.925241789239067,4.48939024390244,0.000816466,0.742453
172,7.0021725112593725,4.578252032520325,0.000776617,0.770223
173,7.079957836796883,4.675040650406504,0.000734803,0.778787
174,7.158607259421295,4.76130081300813,0.000648462,0.787447
175,7.238130378163925,4.8464634146341465,0.000570071,0.796153
176,7.318536898689247,4.92930894308943,0.000520734,0.805026
177,7.399836634479451,5.007113821138211,0.000474317,0.813974
178,7.482039508032168,5.081341463414634,0.000429265,0.823019
179,7.565155552071494,5.154634146341463,0.000390294,0.832167
180,7.649194910772461,5.225528455284553,0.000348219,0.841396
181,7.734167840999122,5.29,0.000309407,0.850758
182,7.820084713556388,5.343739837398374,0.000267918,0.860183
183,7.906956014455753,5.386788617886179,0.000241261,0.869724
184,7.994792346195112,5.42,0.000219446,0.879307
185,8.083604429052771,5.445731707317074,0.000201243,0.889165
186,8.173403102395827,5.467560975609756,0.000192461,0.89907
187,8.264199326003121,5.487235772357723,0.000178936,0.908998
188,8.356004181402835,5.5076016260162595,0.000172186,0.917315
189,8.448828873224988,5.527520325203252,0.000154558,0.927746
190,8.542684730568942,5.5495121951219515,0.000141527,0.939695
191,8.637583208386094,5.572926829268293,0.000123913,0.950134
192,8.733535888877936,5.596504065040651,0.000106941,0.960688
193,8.830554482909648,5.6171951219512195,8.39122e-05,0.97136
194,8.928650831439386,5.634024390243902,6.74201e-05,0.982085
195,9.027836906963444,5.646341463414634,4.93156e-05,0.992971
196,9.128124814977493,5.655040650406504,3.61959e-05,1.00386
197,9.229526795454028,5.660609756097561,2.53758e-05,1.01342
198,9.332055224336228,5.663739837398374,1.66856e-05,1.02618
199,9.435722615048434,5.664918699186992,3.44522e-06,1.03718
200,9.54054162002339,5.665162601626017,0.0,0.954054
201,9.646525032246434,5.665162601626017,0.0,0.964653
202,9.753685786816883,5.665162601626017,0.0,0.975369
203,9.862036962526732,5.665162601626017,0.0,0.986204
204,9.971591783456889,5.665162601626017,0.0,0.997159
205,10.082363620591163,5.665162601626017,0.0,1.00824
206,10.194365993448185,5.665162601626017,0.0,1.01944
207,10.307612571731394,5.665162601626017,0.0,1.03076
208,10.422117176997459,5.665162601626017,0.0,1.04221
209,10.537893784343142,5.665162601626017,0.0,1.05379
210,10.654956524110943,5.665162601626017,0.0,1.0655
211,10.7733196836137,5.665162601626017,0.0,1.07733
212,10.892997708878294,5.665162601626017,0.0,1.0893
213,11.014005206408806,5.665162601626017,0.0,1.1014
214,11.13635694496919,5.665162601626017,0.0,1.11364
215,11.260067857385788,5.665162601626017,0.0,1.12601
216,11.38515304236985,5.665162601626017,0.0,1.13852
217,11.511627766360313,5.665162601626017,0.0,1.15116
218,11.639507465387025,5.665162601626017,0.0,1.16395
219,11.768807746954717,5.665162601626017,0.0,1.17688
220,11.899544391947854,5.665162601626017,0.0,1.18995
221,12.031733356556671,5.665162601626017,0.0,1.20317
222,12.165390774224598,5.665162601626017,0.0,1.21654
223,12.300532957617323,5.665162601626017,0.0,1.23005
224,12.437176400613707,5.665162601626017,0.0,1.24372
225,12.575337780318868,5.665162601626017,0.0,1.25753
226,12.715033959099575,5.665162601626017,0.0,1.2715
227,12.856281986642266,5.665162601626017,0.0,1.28563
228,12.999099102033945,5.665162601626017,0.0,1.29991
229,13.143502735866187,5.665162601626017,0.0,1.31435
230,13.289510512362487,5.665162601626017,0.0,1.32895
231,13.4371402515293,5.665162601626017,0.0,1.34371
232,13.58640997133093,5.665162601626017,0.0,1.35864
233,13.73733788988859,5.665162601626017,0.0,1.37373
234,13.88994242770389,5.665162601626017,0.0,1.38899
235,14.044242209907045,5.665162601626017,0.0,1.40442
236,14.200256068530011,5.665162601626017,0.0,1.42003
237,14.35800304480494,5.665162601626017,0.0,1.4358
238,14.517502391488105,5.665162601626017,0.0,1.45175
239,14.678773575209679,5.665162601626017,0.0,1.46788
240,14.841836278849597,5.665162601626017,0.0,1.48418
241,15.00671040393983,5.665162601626017,0.0,1.50067
242,15.173416073093307,5.665162601626017,0.0,1.51734
243,15.341973632459885,5.665162601626017,0.0,1.5342
244,15.512403654209539,5.665162601626017,0.0,1.55124
245,15.684726939043165,5.665162601626017,0.0,1.56847
246,15.858964518731268,5.665162601626017,0.0,1.5859
247,16.03513765868087,5.665162601626017,0.0,1.60351
248,16.213267860530888,5.665162601626017,0.0,1.62133
249,16.393376864776396,5.665162601626017,0.0,1.63934
250,16.57548665342203,5.665162601626017,0.0,1.65755
251,16.75961945266481,5.665162601626017,0.0,1.67596
252,16.945797735606863,5.665162601626017,0.0,1.69458
253,17.13404422499819,5.665162601626017,0.0,1.7134
254,17.324381896009932,5.665162601626017,0.0,1.73244
255,17.5168339790385,5.665162601626017,0.0,1.75168
256,17.711423962540767,5.665162601626017,0.0,1.77114
257,17.908175595900808,5.665162601626017,0.0,1.79082
258,18.10711289232847,5.665162601626017,0.0,1.81071
259,18.308260131790135,5.665162601626017,0.0,1.83083
260,18.511641863972084,5.665162601626017,0.0,1.85116
261,18.71728291127668,5.665162601626017,0.0,1.87173
262,18.92520837185198,5.665162601626017,0.0,1.89252
263,19.135443622654865,5.665162601626017,0.0,1.91354
264,19.34801432254828,5.665162601626017,0.0,1.9348
265,19.562946415432855,5.665162601626017,0.0,1.95629
266,19.780266133413306,5.665162601626017,0.0,1.97803
267,20.000000000000004,5.665162601626017,0.0,2.0
