,freq,redchi,norm,width
0,1.0471285480508996,1.464390243902439,4.94399e-06,0.101922
1,1.0587608285836607,1.4646747967479674,5.46993e-06,0.116129
2,1.070522329115862,1.4645934959349594,5.4039e-06,0.117306
3,1.0824144851190958,1.4640243902439023,5.97624e-06,0.119029
4,1.0944387480112365,1.4630081300813007,6.06278e-06,0.120351
5,1.1065965853335857,1.461869918699187,6.63127e-06,0.12059
6,1.1188894809299823,1.460609756097561,6.84804e-06,0.12303
7,1.1313189351279025,1.4595121951219514,7.6137e-06,0.124413
8,1.1438864649215728,1.4584552845528453,8.25763e-06,0.124051
9,1.1565936041571172,1.4572764227642276,8.06758e-06,0.122665
10,1.1694419037197599,1.4567073170731708,7.89771e-06,0.109396
11,1.1824329317231081,1.4569918699186992,7.84674e-06,0.111422
12,1.1955682737005384,1.4580894308943089,7.66309e-06,0.1088
13,1.2088495327987077,1.459918699186992,7.15868e-06,0.109083
14,1.2222783299732152,1.4623577235772358,6.68655e-06,0.119059
15,1.2358563041864368,1.4647560975609755,6.30139e-06,0.13073
16,1.2495851126075586,1.4669512195121952,5.52111e-06,0.135008
17,1.2634664308148307,1.4689024390243903,4.32017e-06,0.114401
18,1.2775019530000689,1.4707723577235772,3.78243e-06,0.116767
19,1.2916933921754286,1.4728861788617886,2.89107e-06,0.118998
20,1.3060424803824748,1.4748373983739838,2.14249e-06,0.117598
21,1.3205509689035746,1.4764227642276422,1.23199e-06,0.138897
22,1.3352206284756383,1.476991869918699,5.57888e-08,0.145441
23,1.3500532495062354,1.476991869918699,0.0,0.135005
24,1.3650506422921107,1.476991869918699,0.0,0.136505
25,1.3802146372401272,1.476991869918699,0.0,0.138021
26,1.3955470850906657,1.476991869918699,0.0,0.139555
27,1.4110498571435033,1.476991869918699,0.0,0.141105
28,1.4267248454862032,1.476991869918699,0.0,0.142672
29,1.4425739632250398,1.476991869918699,0.0,0.144257
30,1.4585991447184923,1.476991869918699,0.0,0.14586
31,1.474802345813327,1.476991869918699,0.0,0.14748
32,1.491185544083308,1.476991869918699,0.0,0.149119
33,1.5077507390705542,1.476991869918699,0.0,0.150775
34,1.5244999525295826,1.476951219512195,1.44054e-07,0.141058
35,1.5414352286740576,1.476951219512195,3.37173e-07,0.145468
36,1.5585586344262863,1.476869918699187,4.73285e-07,0.141027
37,1.5758722596694812,1.476869918699187,5.24607e-07,0.14499
38,1.593378217502827,1.476910569105691,3.37832e-07,0.144111
39,1.6110786444993823,1.476910569105691,3.69062e-07,0.151177
40,1.6289757009668435,1.476910569105691,3.78942e-07,0.153136
41,1.6470715712112072,1.476869918699187,5.62603e-07,0.153532
42,1.6653684638033603,1.4767886178861789,6.40821e-07,0.156725
43,1.6838686118486341,1.4767479674796746,6.27744e-07,0.152934
44,1.70257427325935,1.476869918699187,4.63953e-07,0.160746
45,1.7214877310303935,1.476951219512195,6.70282e-08,0.15871
46,1.7406112935178513,1.476991869918699,0.0,0.174061
47,1.7599472947207409,1.476991869918699,0.0,0.175995
48,1.779498094565872,1.476991869918699,0.0,0.17795
49,1.7992660791958721,1.476991869918699,0.0,0.179927
50,1.81925366126041,1.476991869918699,0.0,0.181925
51,1.839463280210657,1.476991869918699,0.0,0.183946
52,1.8598974025970172,1.476991869918699,0.0,0.18599
53,1.8805585223701655,1.476991869918699,0.0,0.188056
54,1.901449161185431,1.476991869918699,0.0,0.190145
55,1.9225718687105604,1.476991869918699,0.0,0.192257
56,1.9439292229369007,1.476991869918699,0.0,0.194393
57,1.9655238304940383,1.476991869918699,0.0,0.196552
58,1.9873583269679354,1.476991869918699,0.0,0.198736
59,2.0094353772225966,1.476991869918699,0.0,0.200944
60,2.031757675725313,1.476991869918699,0.0,0.203176
61,2.0543279468755165,1.476991869918699,0.0,0.205433
62,2.077148945337289,1.476991869918699,0.0,0.207715
63,2.100223456375563,1.476991869918699,0.0,0.210022
64,2.123554296196061,1.476991869918699,0.0,0.212355
65,2.147144312289006,1.476991869918699,0.0,0.214714
66,2.1709963837766555,1.476991869918699,0.0,0.2171
67,2.1951134217646913,1.476991869918699,0.0,0.219511
68,2.219498369697517,1.476991869918699,0.0,0.22195
69,2.244154203717499,1.476991869918699,0.0,0.224415
70,2.269083933028201,1.476991869918699,0.0,0.226908
71,2.2942906002616517,1.476991869918699,0.0,0.229429
72,2.3197772818496922,1.476991869918699,0.0,0.231978
73,2.3455470883994516,1.476991869918699,0.0,0.234555
74,2.371603165072989,1.476991869918699,0.0,0.23716
75,2.397948691971156,1.476991869918699,0.0,0.239795
76,2.424586884521724,1.476991869918699,0.0,0.242459
77,2.45152099387182,1.476991869918699,0.0,0.245152
78,2.478754307284725,1.476991869918699,0.0,0.247875
79,2.50629014854108,1.476991869918699,0.0,0.250629
80,2.5341318783445423,1.476991869918699,0.0,0.253413
81,2.5622828947319634,1.476991869918699,0.0,0.256228
82,2.5907466334881044,1.476991869918699,0.0,0.259075
83,2.6195265685649725,1.476991869918699,0.0,0.261953
84,2.648626212505812,1.476991869918699,0.0,0.264863
85,2.678049116873801,1.476991869918699,0.0,0.267805
86,2.7077988726855153,1.476991869918699,0.0,0.27078
87,2.737879110849208,1.476991869918699,0.0,0.273788
88,2.7682935026079525,1.476991869918699,0.0,0.276829
89,2.7990457599877123,1.476991869918699,0.0,0.279905
90,2.8301396362503914,1.476991869918699,0.0,0.283014
91,2.8615789263519074,1.476991869918699,0.0,0.286158
92,2.8933674674053647,1.476991869918699,0.0,0.289337
93,2.9255091391493653,1.476991869918699,0.0,0.292551
94,2.9580078644215257,1.476991869918699,0.0,0.295801
95,2.9908676096372515,1.476991869918699,0.0,0.299087
96,3.024092385273832,1.476991869918699,0.0,0.302409
97,3.057686246359914,1.476991869918699,0.0,0.305769
98,3.0916532929704084,1.476991869918699,0.0,0.309165
99,3.1259976707269,1.476991869918699,0.0,0.3126
100,3.1607235713036137,1.476991869918699,0.0,0.316072
101,3.195835232938998,1.476991869918699,0.0,0.319584
102,3.2313369409529997,1.476991869918699,0.0,0.323134
103,3.267233028270078,1.476991869918699,0.0,0.326723
104,3.3035278759480278,1.476991869918699,0.0,0.330353
105,3.3402259137126866,1.476991869918699,0.0,0.334023
106,3.377331620498571,1.476991869918699,0.0,0.337733
107,3.4148495249955215,1.476991869918699,0.0,0.341485
108,3.452784206201428,1.476991869918699,0.0,0.345278
109,3.4911402939810827,1.476991869918699,0.0,0.349114
110,3.52992246963125,1.476991869918699,0.0,0.352992
111,3.5691354664520105,1.476991869918699,0.0,0.356914
112,3.608784070324455,1.476991869918699,0.0,0.360878
113,3.6488731202947875,1.476991869918699,0.0,0.364887
114,3.6894075091649277,1.476991869918699,0.0,0.368941
115,3.73039218408967,1.476991869918699,0.0,0.373039
116,3.771832147180468,1.476991869918699,0.0,0.377183
117,3.8137324561159454,1.476991869918699,0.0,0.381373
118,3.856098224759168,1.476991869918699,0.0,0.38561
119,3.898934623781784,1.476991869918699,0.0,0.389893
120,3.9422468812951004,1.476991869918699,0.0,0.394225
121,3.9860402834881605,1.476991869918699,0.0,0.398604
122,4.030320175272916,1.476991869918699,0.0,0.403032
123,4.075091960936564,1.476991869918699,0.0,0.407509
124,4.120361104801134,1.476991869918699,0.0,0.412036
125,4.166133131890395,1.476991869918699,0.0,0.416613
126,4.21241362860418,1.476991869918699,0.0,0.421241
127,4.259208243400194,1.476991869918699,0.0,0.425921
128,4.3065226874833975,1.476991869918699,0.0,0.430652
129,4.354362735503053,1.476991869918699,0.0,0.435436
130,4.402734226257512,1.476991869918699,0.0,0.440273
131,4.451643063406824,1.476991869918699,0.0,0.445164
132,4.501095216193276,1.476991869918699,0.0,0.45011
133,4.551096720169926,1.476991869918699,0.0,0.45511
134,4.601653677937228,1.476991869918699,0.0,0.460165
135,4.652772259887852,1.476991869918699,0.0,0.465277
136,4.704458704959767,1.476991869918699,0.0,0.470446
137,4.756719321397685,1.476991869918699,0.0,0.475672
138,4.809560487522986,1.476991869918699,0.0,0.480956
139,4.862988652512174,1.476991869918699,0.0,0.486299
140,4.917010337183984,1.476951219512195,3.74002e-07,0.519494
141,4.971632134795246,1.4758536585365853,3.79843e-06,0.546733
142,5.026860711845576,1.4732926829268294,6.05002e-06,0.552693
143,5.082702808891011,1.4692276422764228,8.54025e-06,0.55886
144,5.139165241366684,1.4636585365853658,1.11063e-05,0.565242
145,5.196254900418639,1.456910569105691,1.41687e-05,0.571568
146,5.2539787537448746,1.449390243902439,1.67831e-05,0.577929
147,5.312343846445754,1.4414634146341465,1.88999e-05,0.584259
148,5.371357301883837,1.433292682926829,2.04981e-05,0.590845
149,5.431026322553275,1.4246747967479676,2.17041e-05,0.596935
150,5.491358190958871,1.4152439024390242,2.46611e-05,0.603686
151,5.5523602705048924,1.4055691056910569,2.79561e-05,0.610755
152,5.614040006393758,1.396910569105691,3.08167e-05,0.617121
153,5.676404926534721,1.3907317073170733,3.24362e-05,0.621475
154,5.739462642462633,1.3871951219512195,3.25417e-05,0.631313
155,5.803220850266918,1.3857723577235772,3.17062e-05,0.638246
156,5.867687331530871,1.384878048780488,3.23129e-05,0.645341
157,5.932869954281387,1.383089430894309,3.3099e-05,0.652384
158,5.9987766739492345,1.3808130081300813,3.36637e-05,0.659437
159,6.065415534340013,1.3795528455284554,3.45592e-05,0.667195
160,6.132794668615875,1.3799186991869918,3.38621e-05,0.674567
161,6.200922300288177,1.3820731707317073,3.35016e-05,0.682055
162,6.26980674422113,1.3853658536585367,3.29166e-05,0.689614
163,6.33945640764663,1.3897560975609755,3.20117e-05,0.697147
164,6.409879791190342,1.3957317073170732,3.20648e-05,0.705077
165,6.481085489909176,1.4030081300813007,3.00514e-05,0.712919
166,6.553082194340318,1.4129268292682926,2.90179e-05,0.712855
167,6.625878691561884,1.4232113821138213,2.42265e-05,0.728628
168,6.699483866265369,1.4347154471544716,2.1093e-05,0.736374
169,6.773906701840011,1.4447967479674797,1.89597e-05,0.744494
170,6.849156281469203,1.451869918699187,1.73548e-05,0.753196
171,6.925241789239067,1.4557723577235773,1.62107e-05,0.761726
172,7.0021725112593725,1.45760162601626,1.57595e-05,0.769806
173,7.079957836796883,1.45890243902439,1.62696e-05,0.778717
174,7.158607259421295,1.4608130081300814,1.67343e-05,0.787442
175,7.238130378163925,1.463170731707317,1.54309e-05,0.796188
176,7.318536898689247,1.4658536585365856,1.34199e-05,0.805001
177,7.399836634479451,1.4682520325203252,1.06607e-05,0.813833
178,7.482039508032168,1.4702845528455284,9.31212e-06,0.821632
179,7.565155552071494,1.4718292682926828,8.00426e-06,0.829822
180,7.649194910772461,1.473170731707317,7.29024e-06,0.826051
181,7.734167840999122,1.474268292682927,5.5436e-06,0.84936
182,7.820084713556388,1.4754065040650406,4.71913e-06,0.847393
183,7.906956014455753,1.476260162601626,3.13118e-06,0.855568
184,7.994792346195112,1.476829268292683,1.12566e-06,0.852956
185,8.083604429052771,1.476991869918699,0.0,0.80836
186,8.173403102395827,1.476991869918699,0.0,0.81734
187,8.264199326003121,1.476991869918699,0.0,0.82642
188,8.356004181402835,1.476991869918699,0.0,0.8356
189,8.448828873224988,1.476991869918699,0.0,0.844883
190,8.542684730568942,1.476991869918699,0.0,0.854268
191,8.637583208386094,1.476991869918699,0.0,0.863758
192,8.733535888877936,1.476991869918699,0.0,0.873354
193,8.830554482909648,1.476991869918699,0.0,0.883055
194,8.928650831439386,1.476991869918699,0.0,0.892865
195,9.027836906963444,1.476991869918699,0.0,0.902784
196,9.128124814977493,1.476991869918699,0.0,0.912812
197,9.229526795454028,1.476991869918699,0.0,0.922953
198,9.332055224336228,1.476991869918699,0.0,0.933206
199,9.435722615048434,1.476991869918699,0.0,0.943572
200,9.54054162002339,1.476991869918699,0.0,0.954054
201,9.646525032246434,1.476991869918699,0.0,0.964653
202,9.753685786816883,1.476991869918699,0.0,0.975369
203,9.862036962526732,1.476991869918699,0.0,0.986204
204,9.971591783456889,1.476991869918699,0.0,0.997159
205,10.082363620591163,1.476951219512195,1.50996e-07,0.908026
206,10.194365993448185,1.476869918699187,4.37702e-07,0.941219
207,10.307612571731394,1.476910569105691,3.47753e-07,0.948881
208,10.422117176997459,1.476991869918699,0.0,1.04221
209,10.537893784343142,1.476991869918699,0.0,1.05379
210,10.654956524110943,1.476991869918699,0.0,1.0655
211,10.7733196836137,1.476991869918699,0.0,1.07733
212,10.892997708878294,1.476991869918699,0.0,1.0893
213,11.014005206408806,1.476991869918699,0.0,1.1014
214,11.13635694496919,1.476991869918699,0.0,1.11364
215,11.260067857385788,1.476991869918699,0.0,1.12601
216,11.38515304236985,1.476991869918699,0.0,1.13852
217,11.511627766360313,1.476991869918699,0.0,1.15116
218,11.639507465387025,1.476991869918699,0.0,1.16395
219,11.768807746954717,1.476991869918699,0.0,1.17688
220,11.899544391947854,1.476991869918699,0.0,1.18995
221,12.031733356556671,1.476991869918699,0.0,1.20317
222,12.165390774224598,1.476991869918699,0.0,1.21654
223,12.300532957617323,1.476991869918699,0.0,1.23005
224,12.437176400613707,1.476991869918699,0.0,1.24372
225,12.575337780318868,1.476991869918699,0.0,1.25753
226,12.715033959099575,1.476991869918699,0.0,1.2715
227,12.856281986642266,1.476991869918699,0.0,1.28563
228,12.999099102033945,1.476991869918699,0.0,1.29991
229,13.143502735866187,1.476991869918699,0.0,1.31435
230,13.289510512362487,1.476991869918699,0.0,1.32895
231,13.4371402515293,1.476991869918699,0.0,1.34371
232,13.58640997133093,1.476991869918699,0.0,1.35864
233,13.73733788988859,1.476991869918699,0.0,1.37373
234,13.88994242770389,1.476991869918699,0.0,1.38899
235,14.044242209907045,1.476991869918699,0.0,1.40442
236,14.200256068530011,1.476991869918699,0.0,1.42003
237,14.35800304480494,1.476991869918699,0.0,1.4358
238,14.517502391488105,1.476991869918699,0.0,1.45175
239,14.678773575209679,1.476991869918699,0.0,1.46788
240,14.841836278849597,1.476991869918699,0.0,1.48418
241,15.00671040393983,1.476991869918699,0.0,1.50067
242,15.173416073093307,1.476991869918699,0.0,1.51734
243,15.341973632459885,1.476991869918699,0.0,1.5342
244,15.512403654209539,1.476991869918699,0.0,1.55124
245,15.684726939043165,1.476991869918699,0.0,1.56847
246,15.858964518731268,1.476991869918699,0.0,1.5859
247,16.03513765868087,1.476991869918699,0.0,1.60351
248,16.213267860530888,1.476991869918699,0.0,1.62133
249,16.393376864776396,1.476991869918699,0.0,1.63934
250,16.57548665342203,1.476991869918699,0.0,1.65755
251,16.75961945266481,1.476991869918699,0.0,1.67596
252,16.945797735606863,1.476991869918699,0.0,1.69458
253,17.13404422499819,1.476991869918699,0.0,1.7134
254,17.324381896009932,1.476991869918699,0.0,1.73244
255,17.5168339790385,1.476991869918699,0.0,1.75168
256,17.711423962540767,1.476991869918699,0.0,1.77114
257,17.908175595900808,1.476991869918699,0.0,1.79082
258,18.10711289232847,1.476991869918699,0.0,1.81071
259,18.308260131790135,1.476991869918699,0.0,1.83083
260,18.511641863972084,1.476991869918699,0.0,1.85116
261,18.71728291127668,1.476991869918699,0.0,1.87173
262,18.92520837185198,1.476991869918699,0.0,1.89252
263,19.135443622654865,1.476991869918699,0.0,1.91354
264,19.34801432254828,1.476991869918699,3.02663e-09,1.74795
265,19.562946415432855,1.476829268292683,1.40197e-06,1.76582
266,19.780266133413306,1.4765853658536585,2.37461e-06,1.78055
267,20.000000000000004,1.4765447154471545,2.54476e-06,1.80087
