,freq,redchi,norm,width
0,1.0471285480508996,3.9053252032520325,0.0,0.104713
1,1.0587608285836607,3.9053252032520325,0.0,0.105876
2,1.070522329115862,3.9053252032520325,0.0,0.107052
3,1.0824144851190958,3.9053252032520325,0.0,0.108241
4,1.0944387480112365,3.9053252032520325,0.0,0.109444
5,1.1065965853335857,3.9053252032520325,0.0,0.11066
6,1.1188894809299823,3.9053252032520325,0.0,0.111889
7,1.1313189351279025,3.9053252032520325,0.0,0.113132
8,1.1438864649215728,3.9053252032520325,0.0,0.114389
9,1.1565936041571172,3.9053252032520325,0.0,0.115659
10,1.1694419037197599,3.9053252032520325,0.0,0.116944
11,1.1824329317231081,3.9053252032520325,0.0,0.118243
12,1.1955682737005384,3.9053252032520325,0.0,0.119557
13,1.2088495327987077,3.9053252032520325,0.0,0.120885
14,1.2222783299732152,3.9053252032520325,0.0,0.122228
15,1.2358563041864368,3.9053252032520325,0.0,0.123586
16,1.2495851126075586,3.9053252032520325,0.0,0.124959
17,1.2634664308148307,3.9053252032520325,0.0,0.126347
18,1.2775019530000689,3.9053252032520325,0.0,0.12775
19,1.2916933921754286,3.9053252032520325,0.0,0.129169
20,1.3060424803824748,3.9053252032520325,0.0,0.130604
21,1.3205509689035746,3.9053252032520325,0.0,0.132055
22,1.3352206284756383,3.9053252032520325,0.0,0.133522
23,1.3500532495062354,3.9053252032520325,0.0,0.135005
24,1.3650506422921107,3.9053252032520325,0.0,0.136505
25,1.3802146372401272,3.9053252032520325,0.0,0.138021
26,1.3955470850906657,3.9053252032520325,0.0,0.139555
27,1.4110498571435033,3.9053252032520325,0.0,0.141105
28,1.4267248454862032,3.9053252032520325,0.0,0.142672
29,1.4425739632250398,3.9053252032520325,0.0,0.144257
30,1.4585991447184923,3.9053252032520325,0.0,0.14586
31,1.474802345813327,3.9053252032520325,0.0,0.14748
32,1.491185544083308,3.9053252032520325,0.0,0.149119
33,1.5077507390705542,3.9053252032520325,0.0,0.150775
34,1.5244999525295826,3.9053252032520325,0.0,0.15245
35,1.5414352286740576,3.9053252032520325,0.0,0.154144
36,1.5585586344262863,3.9053252032520325,0.0,0.155856
37,1.5758722596694812,3.9053252032520325,0.0,0.157587
38,1.593378217502827,3.9053252032520325,0.0,0.159338
39,1.6110786444993823,3.9053252032520325,0.0,0.161108
40,1.6289757009668435,3.9053252032520325,0.0,0.162898
41,1.6470715712112072,3.9053252032520325,0.0,0.164707
42,1.6653684638033603,3.9053252032520325,0.0,0.166537
43,1.6838686118486341,3.9053252032520325,0.0,0.168387
44,1.70257427325935,3.9053252032520325,0.0,0.170257
45,1.7214877310303935,3.9053252032520325,0.0,0.172149
46,1.7406112935178513,3.9053252032520325,0.0,0.174061
47,1.7599472947207409,3.9053252032520325,0.0,0.175995
48,1.779498094565872,3.9053252032520325,0.0,0.17795
49,1.7992660791958721,3.9053252032520325,0.0,0.179927
50,1.81925366126041,3.9053252032520325,0.0,0.181925
51,1.839463280210657,3.9053252032520325,0.0,0.183946
52,1.8598974025970172,3.9053252032520325,0.0,0.18599
53,1.8805585223701655,3.9053252032520325,0.0,0.188056
54,1.901449161185431,3.9053252032520325,0.0,0.190145
55,1.9225718687105604,3.903861788617886,3.74549e-05,0.209636
56,1.9439292229369007,3.899471544715447,7.6819e-05,0.213275
57,1.9655238304940383,3.8925203252032516,0.000109751,0.2145
58,1.9873583269679354,3.883739837398374,0.000154154,0.218602
59,2.0094353772225966,3.873130081300813,0.000177909,0.221013
60,2.031757675725313,3.860609756097561,0.000229187,0.223458
61,2.0543279468755165,3.8450813008130083,0.000276758,0.225914
62,2.077148945337289,3.8252439024390243,0.000332293,0.228433
63,2.100223456375563,3.8003252032520325,0.000395971,0.230956
64,2.123554296196061,3.7707317073170734,0.000474666,0.233586
65,2.147144312289006,3.736951219512195,0.00054278,0.236183
66,2.1709963837766555,3.7002439024390243,0.000624915,0.238798
67,2.1951134217646913,3.660447154471545,0.000694082,0.241421
68,2.219498369697517,3.616219512195122,0.000815346,0.244133
69,2.244154203717499,3.5641056910569104,0.000949441,0.246857
70,2.269083933028201,3.4987398373983742,0.00110317,0.249576
71,2.2942906002616517,3.419024390243903,0.00141126,0.252372
72,2.3197772818496922,3.310691056910569,0.0016104,0.25513
73,2.3455470883994516,3.1840243902439025,0.00186765,0.226018
74,2.371603165072989,3.03630081300813,0.00223708,0.213518
75,2.397948691971156,2.9065853658536587,0.00261163,0.215819
76,2.424586884521724,2.8226422764227643,0.00285561,0.218275
77,2.45152099387182,2.794227642276423,0.00292712,0.22073
78,2.478754307284725,2.816910569105691,0.00284061,0.223293
79,2.50629014854108,2.880650406504065,0.00262861,0.23357
80,2.5341318783445423,2.9701626016260163,0.00234674,0.246878
81,2.5622828947319634,3.069878048780488,0.00204833,0.262222
82,2.5907466334881044,3.168943089430894,0.00177173,0.284803
83,2.6195265685649725,3.261910569105691,0.00154348,0.288098
84,2.648626212505812,3.3467479674796747,0.00136901,0.291314
85,2.678049116873801,3.4140650406504065,0.00115033,0.294584
86,2.7077988726855153,3.469837398373984,0.00100608,0.297857
87,2.737879110849208,3.5200813008130085,0.000926031,0.301158
88,2.7682935026079525,3.5634146341463415,0.000773731,0.304512
89,2.7990457599877123,3.614430894308943,0.000718469,0.30781
90,2.8301396362503914,3.662682926829268,0.000611319,0.311315
91,2.8615789263519074,3.7078455284552847,0.000507819,0.314771
92,2.8933674674053647,3.7471138211382113,0.000427033,0.318226
93,2.9255091391493653,3.779227642276423,0.000387263,0.321806
94,2.9580078644215257,3.804349593495935,0.000338031,0.325381
95,2.9908676096372515,3.8245528455284554,0.000284757,0.328954
96,3.024092385273832,3.84130081300813,0.000245054,0.332606
97,3.057686246359914,3.8542682926829266,0.000210295,0.33632
98,3.0916532929704084,3.863658536585366,0.000185154,0.340065
99,3.1259976707269,3.870365853658537,0.000168636,0.343859
100,3.1607235713036137,3.8753658536585367,0.000155515,0.347535
101,3.195835232938998,3.879349593495935,0.00014454,0.35142
102,3.2313369409529997,3.8826829268292684,0.000133559,0.355381
103,3.267233028270078,3.885487804878049,0.000123474,0.359346
104,3.3035278759480278,3.8879268292682925,0.000115362,0.36332
105,3.3402259137126866,3.890040650406504,0.000107361,0.367383
106,3.377331620498571,3.8928455284552843,0.00011568,0.368254
107,3.4148495249955215,3.8937804878048783,9.54084e-05,0.375437
108,3.452784206201428,3.8952845528455287,8.89139e-05,0.379745
109,3.4911402939810827,3.8965447154471544,8.19831e-05,0.384009
110,3.52992246963125,3.897439024390244,7.61322e-05,0.38807
111,3.5691354664520105,3.8977642276422766,7.15911e-05,0.39252
112,3.608784070324455,3.897520325203252,7.11597e-05,0.396797
113,3.6488731202947875,3.896626016260163,7.38771e-05,0.400805
114,3.6894075091649277,3.8954065040650407,7.69222e-05,0.405287
115,3.73039218408967,3.894268292682927,7.7191e-05,0.41009
116,3.771832147180468,3.893617886178862,7.59013e-05,0.414773
117,3.8137324561159454,3.8936991869918702,7.8797e-05,0.41941
118,3.856098224759168,3.8945528455284553,7.55993e-05,0.424136
119,3.898934623781784,3.8963414634146343,6.63155e-05,0.428282
120,3.9422468812951004,3.898739837398374,6.0559e-05,0.433562
121,3.9860402834881605,3.9010162601626015,5.45876e-05,0.438446
122,4.030320175272916,3.9021951219512196,3.26367e-05,0.443275
123,4.075091960936564,3.9027642276422765,2.7931e-05,0.448159
124,4.120361104801134,3.90260162601626,2.80348e-05,0.453179
125,4.166133131890395,3.902113821138211,5.14719e-05,0.458268
126,4.21241362860418,3.8997967479674798,6.14962e-05,0.46334
127,4.259208243400194,3.8956910569105694,8.00205e-05,0.468499
128,4.3065226874833975,3.888577235772358,0.000104406,0.473717
129,4.354362735503053,3.87739837398374,0.000134994,0.478934
130,4.402734226257512,3.8603658536585366,0.000168765,0.484255
131,4.451643063406824,3.8352845528455286,0.00021425,0.489593
132,4.501095216193276,3.7982520325203253,0.000271751,0.495118
133,4.551096720169926,3.745528455284553,0.000346079,0.500438
134,4.601653677937228,3.6758943089430893,0.000476874,0.506177
135,4.652772259887852,3.5860975609756096,0.000564203,0.511536
136,4.704458704959767,3.4851219512195124,0.000637532,0.428887
137,4.756719321397685,3.383617886178862,0.000735872,0.428111
138,4.809560487522986,3.299471544715447,0.000826139,0.434026
139,4.862988652512174,3.2397967479674796,0.000894596,0.45286
140,4.917010337183984,3.2085772357723576,0.000938548,0.482456
141,4.971632134795246,3.2040650406504065,0.000954846,0.516159
142,5.026860711845576,3.220731707317073,0.000943608,0.547961
143,5.082702808891011,3.2540650406504064,0.000907266,0.558993
144,5.139165241366684,3.300609756097561,0.000848322,0.565308
145,5.196254900418639,3.356504065040651,0.000776251,0.571507
146,5.2539787537448746,3.4178861788617882,0.000703743,0.577851
147,5.312343846445754,3.480121951219512,0.000634306,0.584255
148,5.371357301883837,3.532926829268293,0.000517089,0.5908
149,5.431026322553275,3.581869918699187,0.000457934,0.59733
150,5.491358190958871,3.625569105691057,0.00042594,0.603538
151,5.5523602705048924,3.662520325203252,0.00036611,0.61076
152,5.614040006393758,3.698130081300813,0.000322731,0.617543
153,5.676404926534721,3.731666666666667,0.000286066,0.624404
154,5.739462642462633,3.76109756097561,0.000241409,0.631293
155,5.803220850266918,3.786138211382114,0.000219267,0.638354
156,5.867687331530871,3.8048373983739836,0.000195688,0.645446
157,5.932869954281387,3.8179674796747967,0.000179355,0.652616
158,5.9987766739492345,3.8267073170731707,0.000168759,0.659865
159,6.065415534340013,3.832439024390244,0.000161896,0.667195
160,6.132794668615875,3.8364227642276423,0.00014869,0.674451
161,6.200922300288177,3.8411382113821135,0.00014817,0.682019
162,6.26980674422113,3.847317073170732,0.000139345,0.689212
163,6.33945640764663,3.855650406504065,0.000127202,0.693643
164,6.409879791190342,3.8652439024390244,0.000112454,0.705053
165,6.481085489909176,3.874959349593496,9.97623e-05,0.70977
166,6.553082194340318,3.883048780487805,8.47908e-05,0.720834
167,6.625878691561884,3.8891869918699187,6.83488e-05,0.728428
168,6.699483866265369,3.893617886178862,5.83685e-05,0.736943
169,6.773906701840011,3.896666666666667,5.01472e-05,0.744967
170,6.849156281469203,3.898780487804878,4.29055e-05,0.753165
171,6.925241789239067,3.9003252032520326,3.67888e-05,0.761703
172,7.0021725112593725,3.9014634146341463,3.17373e-05,0.769285
173,7.079957836796883,3.9023170731707317,2.76575e-05,0.778517
174,7.158607259421295,3.9030487804878047,2.35842e-05,0.782284
175,7.238130378163925,3.903739837398374,1.955e-05,0.79595
176,7.318536898689247,3.904349593495935,1.55758e-05,0.804518
177,7.399836634479451,3.9048780487804877,1.15638e-05,0.811049
178,7.482039508032168,3.90520325203252,7.72675e-06,0.805092
179,7.565155552071494,3.9053252032520325,1.56653e-06,0.812583
180,7.649194910772461,3.9053252032520325,0.0,0.764919
181,7.734167840999122,3.9053252032520325,0.0,0.773417
182,7.820084713556388,3.9053252032520325,0.0,0.782008
183,7.906956014455753,3.9053252032520325,0.0,0.790696
184,7.994792346195112,3.9053252032520325,0.0,0.799479
185,8.083604429052771,3.9053252032520325,0.0,0.80836
186,8.173403102395827,3.9053252032520325,0.0,0.81734
187,8.264199326003121,3.9053252032520325,0.0,0.82642
188,8.356004181402835,3.9053252032520325,0.0,0.8356
189,8.448828873224988,3.9053252032520325,0.0,0.844883
190,8.542684730568942,3.9053252032520325,0.0,0.854268
191,8.637583208386094,3.9053252032520325,0.0,0.863758
192,8.733535888877936,3.9053252032520325,0.0,0.873354
193,8.830554482909648,3.9053252032520325,3.5145e-08,0.797478
194,8.928650831439386,3.9049593495934958,7.04335e-06,0.805679
195,9.027836906963444,3.904308943089431,1.21138e-05,0.820808
196,9.128124814977493,3.90390243902439,1.46525e-05,0.822749
197,9.229526795454028,3.903861788617886,1.48569e-05,0.830678
198,9.332055224336228,3.9041869918699184,9.79903e-06,0.842078
199,9.435722615048434,3.9040650406504063,1.35348e-05,0.849359
200,9.54054162002339,3.9041056910569103,1.26483e-05,0.86262
201,9.646525032246434,3.904308943089431,1.06215e-05,0.869032
202,9.753685786816883,3.9047967479674797,6.82959e-06,0.885127
203,9.862036962526732,3.9052845528455284,7.97187e-07,0.915997
204,9.971591783456889,3.9053252032520325,0.0,0.997159
205,10.082363620591163,3.9053252032520325,0.0,1.00824
206,10.194365993448185,3.9053252032520325,0.0,1.01944
207,10.307612571731394,3.9053252032520325,0.0,1.03076
208,10.422117176997459,3.9053252032520325,0.0,1.04221
209,10.537893784343142,3.9053252032520325,0.0,1.05379
210,10.654956524110943,3.9053252032520325,0.0,1.0655
211,10.7733196836137,3.9053252032520325,0.0,1.07733
212,10.892997708878294,3.9053252032520325,0.0,1.0893
213,11.014005206408806,3.9053252032520325,0.0,1.1014
214,11.13635694496919,3.9053252032520325,0.0,1.11364
215,11.260067857385788,3.9053252032520325,0.0,1.12601
216,11.38515304236985,3.9053252032520325,0.0,1.13852
217,11.511627766360313,3.9053252032520325,0.0,1.15116
218,11.639507465387025,3.9053252032520325,0.0,1.16395
219,11.768807746954717,3.9053252032520325,0.0,1.17688
220,11.899544391947854,3.9053252032520325,0.0,1.18995
221,12.031733356556671,3.9053252032520325,0.0,1.20317
222,12.165390774224598,3.9053252032520325,0.0,1.21654
223,12.300532957617323,3.9053252032520325,0.0,1.23005
224,12.437176400613707,3.9053252032520325,0.0,1.24372
225,12.575337780318868,3.9053252032520325,0.0,1.25753
226,12.715033959099575,3.9053252032520325,0.0,1.2715
227,12.856281986642266,3.9053252032520325,0.0,1.28563
228,12.999099102033945,3.9053252032520325,0.0,1.29991
229,13.143502735866187,3.9053252032520325,0.0,1.31435
230,13.289510512362487,3.9053252032520325,0.0,1.32895
231,13.4371402515293,3.9053252032520325,0.0,1.34371
232,13.58640997133093,3.9053252032520325,0.0,1.35864
233,13.73733788988859,3.9053252032520325,0.0,1.37373
234,13.88994242770389,3.9053252032520325,0.0,1.38899
235,14.044242209907045,3.9053252032520325,0.0,1.40442
236,14.200256068530011,3.9053252032520325,0.0,1.42003
237,14.35800304480494,3.9053252032520325,0.0,1.4358
238,14.517502391488105,3.9053252032520325,0.0,1.45175
239,14.678773575209679,3.9053252032520325,0.0,1.46788
240,14.841836278849597,3.9053252032520325,0.0,1.48418
241,15.00671040393983,3.9053252032520325,0.0,1.50067
242,15.173416073093307,3.9053252032520325,0.0,1.51734
243,15.341973632459885,3.9053252032520325,0.0,1.5342
244,15.512403654209539,3.9053252032520325,0.0,1.55124
245,15.684726939043165,3.9053252032520325,0.0,1.56847
246,15.858964518731268,3.9053252032520325,0.0,1.5859
247,16.03513765868087,3.9053252032520325,0.0,1.60351
248,16.213267860530888,3.9053252032520325,0.0,1.62133
249,16.393376864776396,3.9053252032520325,0.0,1.63934
250,16.57548665342203,3.9053252032520325,0.0,1.65755
251,16.75961945266481,3.9053252032520325,0.0,1.67596
252,16.945797735606863,3.9053252032520325,0.0,1.69458
253,17.13404422499819,3.9053252032520325,0.0,1.7134
254,17.324381896009932,3.9053252032520325,0.0,1.73244
255,17.5168339790385,3.9053252032520325,0.0,1.75168
256,17.711423962540767,3.9053252032520325,0.0,1.77114
257,17.908175595900808,3.9053252032520325,0.0,1.79082
258,18.10711289232847,3.9053252032520325,0.0,1.81071
259,18.308260131790135,3.9053252032520325,0.0,1.83083
260,18.511641863972084,3.9053252032520325,0.0,1.85116
261,18.71728291127668,3.9053252032520325,0.0,1.87173
262,18.92520837185198,3.9053252032520325,0.0,1.89252
263,19.135443622654865,3.9053252032520325,0.0,1.91354
264,19.34801432254828,3.9053252032520325,0.0,1.9348
265,19.562946415432855,3.9053252032520325,0.0,1.95629
266,19.780266133413306,3.9053252032520325,0.0,1.97803
267,20.000000000000004,3.9053252032520325,0.0,2.0
