freq,redchi,fitstat,norm,width
1.0471285480508996,2.1290650406504064,523.75,0.00220419,0.115152
1.0587608285836607,2.1319512195121955,524.46,0.00202403,0.115366
1.070522329115862,2.1340243902439027,524.97,0.00168457,0.117665
1.0824144851190958,2.1358130081300812,525.41,0.00153013,0.118926
1.0944387480112365,2.1372764227642276,525.77,0.00143417,0.120379
1.1065965853335857,2.138252032520325,526.01,0.00131366,0.121708
1.1188894809299823,2.138658536585366,526.11,0.00120091,0.123048
1.1313189351279025,2.138577235772358,526.09,0.00120258,0.124425
1.1438864649215728,2.1379268292682925,525.93,0.001324,0.125649
1.1565936041571172,2.1365447154471546,525.59,0.00156819,0.127217
1.1694419037197599,2.1344308943089434,525.07,0.00185792,0.128635
1.1824329317231081,2.1320731707317075,524.49,0.00236266,0.124406
1.1955682737005384,2.1293089430894305,523.81,0.00248478,0.113432
1.2088495327987077,2.1271544715447153,523.28,0.00265241,0.108826
1.2222783299732152,2.1263821138211383,523.09,0.00286914,0.111478
1.2358563041864368,2.1266260162601625,523.15,0.0031482,0.135761
1.2495851126075586,2.127520325203252,523.37,0.00329156,0.137394
1.2634664308148307,2.1289430894308943,523.72,0.00317464,0.133738
1.2775019530000689,2.130162601626016,524.02,0.00283912,0.13967
1.2916933921754286,2.131747967479675,524.41,0.00265564,0.141944
1.3060424803824748,2.133211382113821,524.77,0.0023066,0.143629
1.3205509689035746,2.1345121951219515,525.09,0.00214139,0.144789
1.3352206284756383,2.135487804878049,525.33,0.00203135,0.146856
1.3500532495062354,2.136138211382114,525.49,0.00199798,0.148428
1.3650506422921107,2.136219512195122,525.51,0.00194776,0.150095
1.3802146372401272,2.135731707317073,525.39,0.00200177,0.151821
1.3955470850906657,2.1345528455284555,525.1,0.00217654,0.1533
1.4110498571435033,2.1326016260162604,524.62,0.00246064,0.155132
1.4267248454862032,2.130162601626016,524.02,0.00294662,0.156791
1.4425739632250398,2.127357723577236,523.33,0.00333873,0.158372
1.4585991447184923,2.125081300813008,522.77,0.00408712,0.156055
1.474802345813327,2.122560975609756,522.15,0.00459589,0.161284
1.491185544083308,2.1207723577235775,521.71,0.00489915,0.160092
1.5077507390705542,2.1194715447154473,521.39,0.00515396,0.162453
1.5244999525295826,2.118170731707317,521.07,0.00499247,0.167655
1.5414352286740576,2.1176829268292683,520.95,0.00470592,0.16953
1.5585586344262863,2.1176422764227643,520.94,0.00462634,0.171397
1.5758722596694812,2.1176829268292683,520.95,0.00466484,0.173326
1.593378217502827,2.1177235772357723,520.96,0.00451677,0.175269
1.6110786444993823,2.118252032520325,521.09,0.00444065,0.176409
1.6289757009668435,2.1195121951219513,521.4,0.00459458,0.178703
1.6470715712112072,2.1213008130081303,521.84,0.00430395,0.180642
1.6653684638033603,2.1236178861788617,522.41,0.00383156,0.183186
1.6838686118486341,2.1263821138211383,523.09,0.00325197,0.185051
1.70257427325935,2.1291056910569104,523.76,0.00277631,0.187077
1.7214877310303935,2.1315040650406507,524.35,0.00264281,0.189142
1.7406112935178513,2.133089430894309,524.74,0.0024254,0.191453
1.7599472947207409,2.1339024390243906,524.94,0.00229879,0.193551
1.779498094565872,2.134186991869919,525.01,0.00223834,0.195576
1.7992660791958721,2.134349593495935,525.05,0.00207521,0.197546
1.81925366126041,2.1347967479674796,525.16,0.00212612,0.197565
1.839463280210657,2.135528455284553,525.34,0.00202675,0.199509
1.8598974025970172,2.136382113821138,525.55,0.00189139,0.201921
1.8805585223701655,2.1371951219512195,525.75,0.0017184,0.203764
1.901449161185431,2.138048780487805,525.96,0.0016354,0.204324
1.9225718687105604,2.13890243902439,526.17,0.00125002,0.180101
1.9439292229369007,2.1399593495934957,526.43,0.00122054,0.207991
1.9655238304940383,2.140934959349593,526.67,0.000982241,0.214695
1.9873583269679354,2.1416260162601626,526.84,0.000700739,0.218103
2.0094353772225966,2.1420325203252033,526.94,0.000507332,0.215669
2.031757675725313,2.1421951219512194,526.98,0.000157051,0.2196
2.0543279468755165,2.1422357723577234,526.99,0.0,0.205433
2.077148945337289,2.1422357723577234,526.99,0.0,0.207715
2.100223456375563,2.1422357723577234,526.99,0.0,0.210022
2.123554296196061,2.1422357723577234,526.99,0.0,0.212355
2.147144312289006,2.1422357723577234,526.99,0.0,0.214714
2.1709963837766555,2.1422357723577234,526.99,0.0,0.2171
2.1951134217646913,2.1422357723577234,526.99,0.0,0.219511
2.219498369697517,2.1422357723577234,526.99,0.0,0.22195
2.244154203717499,2.1422357723577234,526.99,0.0,0.224415
2.269083933028201,2.1422357723577234,526.99,0.0,0.226908
2.2942906002616517,2.1422357723577234,526.99,0.0,0.229429
2.3197772818496922,2.1422357723577234,526.99,0.0,0.231978
2.3455470883994516,2.1422357723577234,526.99,0.0,0.234555
2.371603165072989,2.1422357723577234,526.99,0.0,0.23716
2.397948691971156,2.1421951219512194,526.98,0.000136746,0.218266
2.424586884521724,2.1420731707317073,526.95,0.000355122,0.229211
2.45152099387182,2.141951219512195,526.92,0.000342685,0.223204
2.478754307284725,2.1417886178861787,526.88,0.000438927,0.230308
2.50629014854108,2.1416666666666666,526.85,0.000470691,0.230829
2.5341318783445423,2.141463414634146,526.8,0.000708881,0.229823
2.5622828947319634,2.1416666666666666,526.85,0.000596184,0.234511
2.5907466334881044,2.1420731707317073,526.95,0.000275646,0.234328
2.6195265685649725,2.1422357723577234,526.99,0.0,0.261953
2.648626212505812,2.1422357723577234,526.99,0.0,0.264863
2.678049116873801,2.1422357723577234,526.99,0.0,0.267805
2.7077988726855153,2.1422357723577234,526.99,0.0,0.27078
2.737879110849208,2.1422357723577234,526.99,0.0,0.273788
2.7682935026079525,2.1422357723577234,526.99,0.0,0.276829
2.7990457599877123,2.1422357723577234,526.99,0.0,0.279905
2.8301396362503914,2.1422357723577234,526.99,0.0,0.283014
2.8615789263519074,2.1422357723577234,526.99,0.0,0.286158
2.8933674674053647,2.1421138211382114,526.96,0.000432814,0.312863
2.9255091391493653,2.140813008130081,526.64,0.00090845,0.264521
2.9580078644215257,2.1383739837398372,526.04,0.00142636,0.26628
2.9908676096372515,2.136056910569106,525.47,0.00186225,0.269182
3.024092385273832,2.135609756097561,525.36,0.00193002,0.272171
3.057686246359914,2.1370731707317074,525.72,0.00176139,0.275418
3.0916532929704084,2.139349593495935,526.28,0.00148578,0.279431
3.1259976707269,2.140650406504065,526.6,0.00138278,0.343791
3.1607235713036137,2.141422764227642,526.79,0.00129013,0.347673
3.195835232938998,2.141463414634146,526.8,0.000740689,0.351427
3.2313369409529997,2.14130081300813,526.76,0.00138541,0.354997
3.267233028270078,2.1404471544715444,526.55,0.00155357,0.358898
3.3035278759480278,2.139349593495935,526.28,0.0018837,0.363061
3.3402259137126866,2.138211382113821,526.0,0.00192195,0.310883
3.377331620498571,2.137520325203252,525.83,0.00264289,0.365544
3.4148495249955215,2.136910569105691,525.68,0.00265398,0.375441
3.452784206201428,2.136219512195122,525.51,0.00294439,0.379747
3.4911402939810827,2.1352032520325204,525.26,0.00323368,0.38364
3.52992246963125,2.133739837398374,524.9,0.00370792,0.387941
3.5691354664520105,2.1319105691056914,524.45,0.00405887,0.389239
3.608784070324455,2.1297154471544713,523.91,0.00440978,0.396565
3.6488731202947875,2.127357723577236,523.33,0.00420394,0.345973
3.6894075091649277,2.125,522.75,0.00462956,0.332086
3.73039218408967,2.124430894308943,522.61,0.00470853,0.335868
3.771832147180468,2.125528455284553,522.88,0.00469774,0.339706
3.8137324561159454,2.127723577235772,523.42,0.00427151,0.360022
3.856098224759168,2.129837398373984,523.94,0.0041352,0.356383
3.898934623781784,2.1319918699186995,524.47,0.00378201,0.369168
3.9422468812951004,2.1340243902439027,524.97,0.00348558,0.358662
3.9860402834881605,2.136422764227642,525.56,0.00270846,0.359035
4.030320175272916,2.1390243902439026,526.2,0.00192789,0.362854
4.075091960936564,2.141138211382114,526.72,0.00127967,0.430382
4.120361104801134,2.1420731707317073,526.95,0.000394189,0.448939
4.166133131890395,2.1422357723577234,526.99,0.0,0.416613
4.21241362860418,2.1422357723577234,526.99,0.0,0.421241
4.259208243400194,2.1422357723577234,526.99,0.0,0.425921
4.3065226874833975,2.1422357723577234,526.99,0.0,0.430652
4.354362735503053,2.1422357723577234,526.99,0.0,0.435436
4.402734226257512,2.1421544715447154,526.97,0.000295987,0.40789
4.451643063406824,2.141991869918699,526.93,0.000527526,0.40377
4.501095216193276,2.141991869918699,526.93,0.000394711,0.408745
4.551096720169926,2.1420325203252033,526.94,0.000393441,0.421658
4.601653677937228,2.1421138211382114,526.96,0.000319785,0.429792
4.652772259887852,2.1421951219512194,526.98,0.00019987,0.433608
4.704458704959767,2.1422357723577234,526.99,6.0109e-05,0.434988
4.756719321397685,2.1422357723577234,526.99,0.0,0.475672
4.809560487522986,2.1422357723577234,526.99,0.0,0.480956
4.862988652512174,2.1422357723577234,526.99,0.0,0.486299
4.917010337183984,2.1422357723577234,526.99,0.0,0.491701
4.971632134795246,2.1422357723577234,526.99,0.0,0.497163
5.026860711845576,2.1422357723577234,526.99,0.0,0.502686
5.082702808891011,2.1422357723577234,526.99,0.0,0.50827
5.139165241366684,2.1422357723577234,526.99,0.0,0.513917
5.196254900418639,2.1422357723577234,526.99,0.0,0.519625
5.2539787537448746,2.1422357723577234,526.99,0.0,0.525398
5.312343846445754,2.1422357723577234,526.99,0.0,0.531234
5.371357301883837,2.1422357723577234,526.99,0.0,0.537136
5.431026322553275,2.1422357723577234,526.99,0.0,0.543103
5.491358190958871,2.1422357723577234,526.99,0.0,0.549136
5.5523602705048924,2.1422357723577234,526.99,0.0,0.555236
5.614040006393758,2.1422357723577234,526.99,0.0,0.561404
5.676404926534721,2.1422357723577234,526.99,0.0,0.56764
5.739462642462633,2.1422357723577234,526.99,0.0,0.573946
5.803220850266918,2.1422357723577234,526.99,0.0,0.580322
5.867687331530871,2.1422357723577234,526.99,0.0,0.586769
5.932869954281387,2.1422357723577234,526.99,0.0,0.593287
5.9987766739492345,2.1422357723577234,526.99,0.0,0.599878
6.065415534340013,2.1422357723577234,526.99,0.0,0.606542
6.132794668615875,2.1422357723577234,526.99,0.0,0.613279
6.200922300288177,2.1422357723577234,526.99,0.0,0.620092
6.26980674422113,2.1422357723577234,526.99,0.0,0.626981
6.33945640764663,2.1422357723577234,526.99,0.0,0.633946
6.409879791190342,2.1422357723577234,526.99,0.0,0.640988
6.481085489909176,2.1422357723577234,526.99,0.0,0.648109
6.553082194340318,2.1422357723577234,526.99,0.0,0.655308
6.625878691561884,2.1422357723577234,526.99,0.0,0.662588
6.699483866265369,2.1422357723577234,526.99,0.0,0.669948
6.773906701840011,2.1422357723577234,526.99,0.0,0.677391
6.849156281469203,2.1422357723577234,526.99,0.0,0.684916
6.925241789239067,2.1422357723577234,526.99,0.0,0.692524
7.0021725112593725,2.1422357723577234,526.99,3.37039e-05,0.640575
7.079957836796883,2.1422357723577234,526.99,0.000119541,0.659609
7.158607259421295,2.1421138211382114,526.96,0.000418496,0.667288
7.238130378163925,2.1420325203252033,526.94,0.00057918,0.662498
7.318536898689247,2.141991869918699,526.93,0.000635852,0.669145
7.399836634479451,2.1420325203252033,526.94,0.000554,0.670194
7.482039508032168,2.1421544715447154,526.97,0.000385092,0.703566
7.565155552071494,2.1422357723577234,526.99,0.00020259,0.702192
7.649194910772461,2.1422357723577234,526.99,2.07821e-05,0.701803
7.734167840999122,2.1422357723577234,526.99,0.0,0.773417
7.820084713556388,2.1422357723577234,526.99,0.0,0.782008
7.906956014455753,2.1422357723577234,526.99,0.0,0.790696
7.994792346195112,2.1422357723577234,526.99,0.0,0.799479
8.083604429052771,2.1422357723577234,526.99,0.0,0.80836
8.173403102395827,2.1422357723577234,526.99,0.0,0.81734
8.264199326003121,2.1422357723577234,526.99,0.0,0.82642
8.356004181402835,2.1422357723577234,526.99,0.0,0.8356
8.448828873224988,2.1422357723577234,526.99,0.0,0.844883
8.542684730568942,2.1422357723577234,526.99,0.0,0.854268
8.637583208386094,2.1422357723577234,526.99,0.0,0.863758
8.733535888877936,2.1422357723577234,526.99,0.0,0.873354
8.830554482909648,2.1422357723577234,526.99,0.0,0.883055
8.928650831439386,2.1422357723577234,526.99,0.0,0.892865
9.027836906963444,2.1422357723577234,526.99,0.0,0.902784
9.128124814977493,2.1422357723577234,526.99,0.0,0.912812
9.229526795454028,2.1422357723577234,526.99,0.0,0.922953
9.332055224336228,2.1422357723577234,526.99,0.0,0.933206
9.435722615048434,2.1422357723577234,526.99,0.0,0.943572
9.54054162002339,2.1422357723577234,526.99,0.0,0.954054
9.646525032246434,2.1422357723577234,526.99,0.0,0.964653
9.753685786816883,2.1422357723577234,526.99,0.0,0.975369
9.862036962526732,2.1422357723577234,526.99,0.0,0.986204
9.971591783456889,2.1422357723577234,526.99,0.0,0.997159
10.082363620591163,2.1422357723577234,526.99,0.0,1.00824
10.194365993448185,2.1422357723577234,526.99,0.0,1.01944
10.307612571731394,2.1422357723577234,526.99,0.0,1.03076
10.422117176997459,2.1422357723577234,526.99,0.0,1.04221
10.537893784343142,2.1422357723577234,526.99,0.0,1.05379
10.654956524110943,2.1422357723577234,526.99,0.000133105,1.12517
10.7733196836137,2.1417479674796747,526.87,0.00135167,1.1802
10.892997708878294,2.1404065040650404,526.54,0.00226936,0.990834
11.014005206408806,2.138333333333333,526.03,0.00301424,1.00565
11.13635694496919,2.1358943089430893,525.43,0.00406694,1.05356
11.260067857385788,2.133089430894309,524.74,0.00490603,1.06855
11.38515304236985,2.129878048780488,523.95,0.00523391,1.03057
11.511627766360313,2.1262601626016258,523.06,0.00637228,1.04397
11.639507465387025,2.1233739837398375,522.35,0.00699879,1.04848
11.768807746954717,2.1220325203252033,522.02,0.00733655,1.05993
11.899544391947854,2.122520325203252,522.14,0.00736433,1.07414
12.031733356556671,2.1246341463414633,522.66,0.00704774,1.12521
12.165390774224598,2.126869918699187,523.21,0.00807011,1.27969
12.300532957617323,2.1285772357723576,523.63,0.00775094,1.34983
12.437176400613707,2.129918699186992,523.96,0.00740363,1.36004
12.575337780318868,2.130691056910569,524.15,0.00705196,1.37917
12.715033959099575,2.1314227642276427,524.33,0.00699569,1.34826
12.856281986642266,2.1320325203252035,524.48,0.00567555,1.15745
12.999099102033945,2.1333333333333333,524.8,0.00511426,1.17024
13.143502735866187,2.1354065040650405,525.31,0.00485085,1.19816
13.289510512362487,2.1374390243902437,525.81,0.00458419,1.43504
13.4371402515293,2.1391056910569106,526.22,0.00374334,1.47296
13.58640997133093,2.1403252032520323,526.52,0.00307191,1.49328
13.73733788988859,2.141138211382114,526.72,0.00247463,1.50984
13.88994242770389,2.1416666666666666,526.85,0.00210639,1.52393
14.044242209907045,2.141991869918699,526.93,0.00192039,1.50009
14.200256068530011,2.1418292682926827,526.89,0.00109034,1.55311
14.35800304480494,2.1416666666666666,526.85,0.00195234,1.51422
14.517502391488105,2.141219512195122,526.74,0.00201195,1.55567
14.678773575209679,2.140609756097561,526.59,0.0020855,1.3234
14.841836278849597,2.140081300813008,526.46,0.00215583,1.3386
15.00671040393983,2.1399593495934957,526.43,0.00208907,1.35074
15.173416073093307,2.1404471544715444,526.55,0.00171873,1.36695
15.341973632459885,2.141138211382114,526.72,0.00175694,1.38362
15.512403654209539,2.1420731707317073,526.95,0.000726806,1.46268
15.684726939043165,2.1422357723577234,526.99,0.0,1.56847
15.858964518731268,2.1422357723577234,526.99,0.0,1.5859
16.03513765868087,2.1422357723577234,526.99,0.0,1.60351
16.213267860530888,2.1422357723577234,526.99,0.0,1.62133
16.393376864776396,2.1422357723577234,526.99,0.0,1.63934
16.57548665342203,2.1422357723577234,526.99,0.0,1.65755
16.75961945266481,2.1422357723577234,526.99,0.0,1.67596
16.945797735606863,2.1422357723577234,526.99,0.0,1.69458
17.13404422499819,2.1422357723577234,526.99,0.0,1.7134
17.324381896009932,2.1422357723577234,526.99,0.0,1.73244
17.5168339790385,2.1422357723577234,526.99,0.0,1.75168
17.711423962540767,2.1422357723577234,526.99,0.0,1.77114
17.908175595900808,2.1422357723577234,526.99,0.0,1.79082
18.10711289232847,2.1422357723577234,526.99,0.0,1.81071
18.308260131790135,2.1422357723577234,526.99,0.0,1.83083
18.511641863972084,2.1422357723577234,526.99,0.0,1.85116
18.71728291127668,2.1422357723577234,526.99,0.0,1.87173
18.92520837185198,2.1422357723577234,526.99,0.0,1.89252
19.135443622654865,2.1422357723577234,526.99,0.0,1.91354
19.34801432254828,2.1422357723577234,526.99,0.0,1.9348
19.562946415432855,2.1420731707317073,526.95,0.00109293,2.05551
19.780266133413306,2.141382113821138,526.78,0.00198667,1.84042
20.000000000000004,2.1403658536585364,526.53,0.00292755,1.81236
