freq,redchi,fitstat,norm,width
1.0471285480508996,4.5094308943089425,1109.32,0.00376991,0.115176
1.0587608285836607,4.520365853658537,1112.01,0.00325179,0.116449
1.070522329115862,4.529227642276423,1114.19,0.00281262,0.117753
1.0824144851190958,4.53630081300813,1115.93,0.00249773,0.119061
1.0944387480112365,4.540487804878049,1116.96,0.00155753,0.120386
1.1065965853335857,4.543577235772358,1117.72,0.00125775,0.121725
1.1188894809299823,4.54520325203252,1118.12,0.00103324,0.123078
1.1313189351279025,4.545609756097561,1118.22,0.000985926,0.124444
1.1438864649215728,4.544918699186992,1118.05,0.00110725,0.125828
1.1565936041571172,4.543048780487805,1117.59,0.00138329,0.127223
1.1694419037197599,4.540406504065041,1116.94,0.00225545,0.128635
1.1824329317231081,4.536178861788618,1115.9,0.00255599,0.130044
1.1955682737005384,4.5321544715447155,1114.91,0.00310508,0.13151
1.2088495327987077,4.528211382113821,1113.94,0.00322785,0.1329
1.2222783299732152,4.525975609756098,1113.39,0.00367689,0.134426
1.2358563041864368,4.525040650406504,1113.16,0.00373933,0.135913
1.2495851126075586,4.525569105691057,1113.29,0.00374743,0.13744
1.2634664308148307,4.527235772357724,1113.7,0.00370137,0.138967
1.2775019530000689,4.529552845528455,1114.27,0.00342272,0.140497
1.2916933921754286,4.532845528455284,1115.08,0.00348606,0.142086
1.3060424803824748,4.535650406504065,1115.77,0.00302501,0.143665
1.3205509689035746,4.538373983739838,1116.44,0.00278819,0.145183
1.3352206284756383,4.540691056910569,1117.01,0.00277125,0.146874
1.3500532495062354,4.541991869918699,1117.33,0.00246267,0.148446
1.3650506422921107,4.542886178861789,1117.55,0.00231217,0.150101
1.3802146372401272,4.543211382113822,1117.63,0.00224416,0.15177
1.3955470850906657,4.543089430894309,1117.6,0.00224921,0.153455
1.4110498571435033,4.542723577235773,1117.51,0.00229192,0.155161
1.4267248454862032,4.542439024390244,1117.44,0.00230801,0.156856
1.4425739632250398,4.54239837398374,1117.43,0.0023099,0.158674
1.4585991447184923,4.5426422764227645,1117.49,0.00229892,0.160326
1.474802345813327,4.542723577235773,1117.51,0.0022604,0.162104
1.491185544083308,4.542520325203252,1117.46,0.00245034,0.164027
1.5077507390705542,4.541300813008131,1117.16,0.0022588,0.165686
1.5244999525295826,4.539959349593496,1116.83,0.00235412,0.165947
1.5414352286740576,4.538048780487805,1116.36,0.00198797,0.139381
1.5585586344262863,4.537154471544716,1116.14,0.00197203,0.140323
1.5758722596694812,4.5389837398373984,1116.59,0.00175042,0.141895
1.593378217502827,4.542845528455285,1117.54,0.00139155,0.143404
1.6110786444993823,4.546910569105691,1118.54,0.000917766,0.148054
1.6289757009668435,4.549227642276422,1119.11,0.000551991,0.174721
1.6470715712112072,4.549878048780488,1119.27,0.0,0.164707
1.6653684638033603,4.549878048780488,1119.27,0.0,0.166537
1.6838686118486341,4.549878048780488,1119.27,0.0,0.168387
1.70257427325935,4.549878048780488,1119.27,0.0,0.170257
1.7214877310303935,4.549878048780488,1119.27,0.0,0.172149
1.7406112935178513,4.549878048780488,1119.27,0.0,0.174061
1.7599472947207409,4.549878048780488,1119.27,0.0,0.175995
1.779498094565872,4.549878048780488,1119.27,0.0,0.17795
1.7992660791958721,4.549878048780488,1119.27,0.0,0.179927
1.81925366126041,4.549878048780488,1119.27,0.0,0.181925
1.839463280210657,4.549878048780488,1119.27,0.0,0.183946
1.8598974025970172,4.549878048780488,1119.27,0.0,0.18599
1.8805585223701655,4.549878048780488,1119.27,0.0,0.188056
1.901449161185431,4.549878048780488,1119.27,0.0,0.190145
1.9225718687105604,4.549878048780488,1119.27,0.0,0.192257
1.9439292229369007,4.549878048780488,1119.27,0.0,0.194393
1.9655238304940383,4.549878048780488,1119.27,0.0,0.196552
1.9873583269679354,4.549878048780488,1119.27,0.0,0.198736
2.0094353772225966,4.549878048780488,1119.27,0.0,0.200944
2.031757675725313,4.549878048780488,1119.27,0.0,0.203176
2.0543279468755165,4.549878048780488,1119.27,0.0,0.205433
2.077148945337289,4.549878048780488,1119.27,0.0,0.207715
2.100223456375563,4.549878048780488,1119.27,0.0,0.210022
2.123554296196061,4.549878048780488,1119.27,0.0,0.212355
2.147144312289006,4.549878048780488,1119.27,0.0,0.214714
2.1709963837766555,4.549878048780488,1119.27,0.0,0.2171
2.1951134217646913,4.549878048780488,1119.27,0.0,0.219511
2.219498369697517,4.549878048780488,1119.27,0.0,0.22195
2.244154203717499,4.549878048780488,1119.27,0.0,0.224415
2.269083933028201,4.549878048780488,1119.27,0.0,0.226908
2.2942906002616517,4.549878048780488,1119.27,0.0,0.229429
2.3197772818496922,4.549878048780488,1119.27,0.0,0.231978
2.3455470883994516,4.549878048780488,1119.27,0.0,0.234555
2.371603165072989,4.549878048780488,1119.27,0.0,0.23716
2.397948691971156,4.549878048780488,1119.27,0.0,0.239795
2.424586884521724,4.549878048780488,1119.27,0.0,0.242459
2.45152099387182,4.549878048780488,1119.27,0.0,0.245152
2.478754307284725,4.549878048780488,1119.27,0.0,0.247875
2.50629014854108,4.549878048780488,1119.27,0.0,0.250629
2.5341318783445423,4.549878048780488,1119.27,0.0,0.253413
2.5622828947319634,4.549878048780488,1119.27,0.0,0.256228
2.5907466334881044,4.549878048780488,1119.27,0.0,0.259075
2.6195265685649725,4.549878048780488,1119.27,0.0,0.261953
2.648626212505812,4.549878048780488,1119.27,0.0,0.264863
2.678049116873801,4.549878048780488,1119.27,0.0,0.267805
2.7077988726855153,4.549878048780488,1119.27,0.0,0.27078
2.737879110849208,4.549878048780488,1119.27,0.0,0.273788
2.7682935026079525,4.549878048780488,1119.27,0.0,0.276829
2.7990457599877123,4.549878048780488,1119.27,0.0,0.279905
2.8301396362503914,4.549878048780488,1119.27,0.0,0.283014
2.8615789263519074,4.549878048780488,1119.27,0.0,0.286158
2.8933674674053647,4.549878048780488,1119.27,0.0,0.289337
2.9255091391493653,4.549878048780488,1119.27,0.0,0.292551
2.9580078644215257,4.549878048780488,1119.27,0.0,0.295801
2.9908676096372515,4.549878048780488,1119.27,0.0,0.299087
3.024092385273832,4.549878048780488,1119.27,0.0,0.302409
3.057686246359914,4.549878048780488,1119.27,0.0,0.305769
3.0916532929704084,4.549878048780488,1119.27,0.0,0.309165
3.1259976707269,4.549878048780488,1119.27,0.0,0.3126
3.1607235713036137,4.549878048780488,1119.27,0.0,0.316072
3.195835232938998,4.549878048780488,1119.27,0.0,0.319584
3.2313369409529997,4.549878048780488,1119.27,0.0,0.323134
3.267233028270078,4.549878048780488,1119.27,0.0,0.326723
3.3035278759480278,4.549878048780488,1119.27,0.0,0.330353
3.3402259137126866,4.549878048780488,1119.27,0.0,0.334023
3.377331620498571,4.549878048780488,1119.27,0.0,0.337733
3.4148495249955215,4.549878048780488,1119.27,0.0,0.341485
3.452784206201428,4.549878048780488,1119.27,0.0,0.345278
3.4911402939810827,4.549878048780488,1119.27,0.0,0.349114
3.52992246963125,4.549878048780488,1119.27,0.0,0.352992
3.5691354664520105,4.549878048780488,1119.27,0.0,0.356914
3.608784070324455,4.549878048780488,1119.27,0.0,0.360878
3.6488731202947875,4.549878048780488,1119.27,0.0,0.364887
3.6894075091649277,4.549878048780488,1119.27,0.0,0.368941
3.73039218408967,4.549878048780488,1119.27,0.0,0.373039
3.771832147180468,4.549878048780488,1119.27,0.0,0.377183
3.8137324561159454,4.549878048780488,1119.27,0.0,0.381373
3.856098224759168,4.549878048780488,1119.27,0.0,0.38561
3.898934623781784,4.549878048780488,1119.27,0.0,0.389893
3.9422468812951004,4.549878048780488,1119.27,0.0,0.394225
3.9860402834881605,4.549878048780488,1119.27,0.0,0.398604
4.030320175272916,4.549878048780488,1119.27,0.0,0.403032
4.075091960936564,4.549878048780488,1119.27,0.0,0.407509
4.120361104801134,4.549878048780488,1119.27,0.0,0.412036
4.166133131890395,4.549878048780488,1119.27,0.0,0.416613
4.21241362860418,4.549878048780488,1119.27,0.0,0.421241
4.259208243400194,4.549878048780488,1119.27,0.0,0.425921
4.3065226874833975,4.549878048780488,1119.27,0.0,0.430652
4.354362735503053,4.549878048780488,1119.27,0.0,0.435436
4.402734226257512,4.549878048780488,1119.27,0.0,0.440273
4.451643063406824,4.549878048780488,1119.27,0.0,0.445164
4.501095216193276,4.549878048780488,1119.27,0.0,0.45011
4.551096720169926,4.549878048780488,1119.27,0.0,0.45511
4.601653677937228,4.549878048780488,1119.27,0.0,0.460165
4.652772259887852,4.549878048780488,1119.27,0.0,0.465277
4.704458704959767,4.549878048780488,1119.27,0.0,0.470446
4.756719321397685,4.549878048780488,1119.27,0.0,0.475672
4.809560487522986,4.549878048780488,1119.27,0.0,0.480956
4.862988652512174,4.549878048780488,1119.27,0.0,0.486299
4.917010337183984,4.549878048780488,1119.27,0.0,0.491701
4.971632134795246,4.549878048780488,1119.27,0.0,0.497163
5.026860711845576,4.549878048780488,1119.27,0.0,0.502686
5.082702808891011,4.549837398373984,1119.26,0.000169718,0.467444
5.139165241366684,4.5495121951219515,1119.18,0.00048906,0.473388
5.196254900418639,4.548943089430894,1119.04,0.000818299,0.470775
5.2539787537448746,4.548170731707317,1118.85,0.00109735,0.474124
5.312343846445754,4.5476829268292684,1118.73,0.00124119,0.478729
5.371357301883837,4.5478048780487805,1118.76,0.00119373,0.485628
5.431026322553275,4.548455284552846,1118.92,0.000985723,0.490979
5.491358190958871,4.549227642276422,1119.11,0.000666334,0.495577
5.5523602705048924,4.54979674796748,1119.25,0.000276062,0.518593
5.614040006393758,4.549878048780488,1119.27,0.0,0.561404
5.676404926534721,4.549878048780488,1119.27,0.0,0.56764
5.739462642462633,4.549878048780488,1119.27,0.0,0.573946
5.803220850266918,4.549878048780488,1119.27,0.0,0.580322
5.867687331530871,4.549878048780488,1119.27,0.0,0.586769
5.932869954281387,4.549878048780488,1119.27,0.0,0.593287
5.9987766739492345,4.549878048780488,1119.27,0.0,0.599878
6.065415534340013,4.549878048780488,1119.27,0.0,0.606542
6.132794668615875,4.549878048780488,1119.27,0.0,0.613279
6.200922300288177,4.549878048780488,1119.27,0.0,0.620092
6.26980674422113,4.549878048780488,1119.27,0.0,0.626981
6.33945640764663,4.549878048780488,1119.27,0.0,0.633946
6.409879791190342,4.549878048780488,1119.27,0.0,0.640988
6.481085489909176,4.549878048780488,1119.27,0.0,0.648109
6.553082194340318,4.549756097560976,1119.24,0.000317032,0.600126
6.625878691561884,4.549308943089431,1119.13,0.000736706,0.625316
6.699483866265369,4.548739837398374,1118.99,0.00110308,0.614572
6.773906701840011,4.548008130081301,1118.81,0.00165656,0.716557
6.849156281469203,4.546829268292683,1118.52,0.00224814,0.750729
6.925241789239067,4.545121951219512,1118.1,0.00304416,0.753233
7.0021725112593725,4.542520325203252,1117.46,0.00304311,0.646878
7.079957836796883,4.538943089430894,1116.58,0.003943,0.63921
7.158607259421295,4.536138211382114,1115.89,0.00408359,0.644382
7.238130378163925,4.534186991869919,1115.41,0.00472787,0.651499
7.318536898689247,4.5338211382113816,1115.32,0.00482514,0.6595
7.399836634479451,4.534552845528455,1115.5,0.00449102,0.669833
7.482039508032168,4.535894308943089,1115.83,0.00423243,0.675906
7.565155552071494,4.537926829268293,1116.33,0.00392514,0.688735
7.649194910772461,4.540609756097561,1116.99,0.00344248,0.696922
7.734167840999122,4.543414634146342,1117.68,0.00302187,0.716159
7.820084713556388,4.545487804878049,1118.19,0.0027305,0.849201
7.906956014455753,4.546991869918699,1118.56,0.00237832,0.868415
7.994792346195112,4.548048780487805,1118.82,0.00202672,0.87906
8.083604429052771,4.548617886178862,1118.96,0.00152759,0.885163
8.173403102395827,4.548983739837398,1119.05,0.00131086,0.892247
8.264199326003121,4.549186991869918,1119.1,0.0011412,0.895937
8.356004181402835,4.549308943089431,1119.13,0.00101409,0.878314
8.448828873224988,4.549390243902439,1119.15,0.00090273,0.90927
8.542684730568942,4.5495121951219515,1119.18,0.000806599,0.914944
8.637583208386094,4.549634146341464,1119.21,0.000720973,0.909677
8.733535888877936,4.549715447154472,1119.23,0.000656475,0.921566
8.830554482909648,4.549756097560976,1119.24,0.000367371,0.94643
8.928650831439386,4.54979674796748,1119.25,0.000652744,0.956818
9.027836906963444,4.549756097560976,1119.24,0.000710653,0.98385
9.128124814977493,4.5495528455284555,1119.19,0.000782283,0.99969
9.229526795454028,4.549268292682926,1119.12,0.000829616,0.86751
9.332055224336228,4.549024390243902,1119.06,0.000841145,0.87243
9.435722615048434,4.549024390243902,1119.06,0.000819449,0.875935
9.54054162002339,4.549268292682926,1119.12,0.0007508,0.899499
9.646525032246434,4.5495934959349595,1119.2,0.000610041,0.904366
9.753685786816883,4.54979674796748,1119.25,0.000400721,0.925678
9.862036962526732,4.549878048780488,1119.27,0.000150489,1.04222
9.971591783456889,4.549878048780488,1119.27,0.0,0.997159
10.082363620591163,4.549878048780488,1119.27,0.0,1.00824
10.194365993448185,4.549878048780488,1119.27,0.0,1.01944
10.307612571731394,4.549878048780488,1119.27,0.0,1.03076
10.422117176997459,4.549878048780488,1119.27,0.0,1.04221
10.537893784343142,4.549878048780488,1119.27,0.0,1.05379
10.654956524110943,4.549878048780488,1119.27,5.22308e-05,1.14438
10.7733196836137,4.5495121951219515,1119.18,0.000744441,0.985588
10.892997708878294,4.54869918699187,1118.98,0.00130519,0.988763
11.014005206408806,4.548414634146342,1118.91,0.00112118,0.99141
11.13635694496919,4.548536585365854,1118.94,0.00121241,1.05077
11.260067857385788,4.54869918699187,1118.98,0.00128005,1.06285
11.38515304236985,4.548861788617886,1119.02,0.00129779,1.07498
11.511627766360313,4.548861788617886,1119.02,0.00129043,1.05879
11.639507465387025,4.54869918699187,1118.98,0.00126541,1.04851
11.768807746954717,4.548536585365854,1118.94,0.00121102,1.06063
11.899544391947854,4.548373983739838,1118.9,0.00159673,1.07576
12.031733356556671,4.548780487804878,1119.0,0.0012905,1.08859
12.165390774224598,4.5495528455284555,1119.19,0.000601212,1.10087
12.300532957617323,4.549878048780488,1119.27,0.0,1.23005
12.437176400613707,4.549878048780488,1119.27,0.0,1.24372
12.575337780318868,4.549878048780488,1119.27,0.0,1.25753
12.715033959099575,4.549878048780488,1119.27,0.0,1.2715
12.856281986642266,4.549878048780488,1119.27,0.0,1.28563
12.999099102033945,4.549878048780488,1119.27,0.0,1.29991
13.143502735866187,4.549878048780488,1119.27,0.0,1.31435
13.289510512362487,4.549878048780488,1119.27,0.0,1.32895
13.4371402515293,4.549878048780488,1119.27,0.0,1.34371
13.58640997133093,4.549878048780488,1119.27,0.0,1.35864
13.73733788988859,4.549878048780488,1119.27,0.0,1.37373
13.88994242770389,4.549878048780488,1119.27,0.0,1.38899
14.044242209907045,4.549878048780488,1119.27,0.0,1.40442
14.200256068530011,4.549878048780488,1119.27,0.0,1.42003
14.35800304480494,4.549878048780488,1119.27,0.0,1.4358
14.517502391488105,4.549878048780488,1119.27,0.0,1.45175
14.678773575209679,4.549878048780488,1119.27,0.0,1.46788
14.841836278849597,4.549878048780488,1119.27,0.0,1.48418
15.00671040393983,4.549878048780488,1119.27,0.0,1.50067
15.173416073093307,4.549878048780488,1119.27,0.0,1.51734
15.341973632459885,4.549878048780488,1119.27,0.0,1.5342
15.512403654209539,4.549878048780488,1119.27,0.0,1.55124
15.684726939043165,4.549878048780488,1119.27,0.0,1.56847
15.858964518731268,4.549878048780488,1119.27,0.0,1.5859
16.03513765868087,4.549674796747968,1119.22,0.000491038,1.4482
16.213267860530888,4.549227642276422,1119.11,0.000991288,1.46366
16.393376864776396,4.548821138211382,1119.01,0.0013051,1.47629
16.57548665342203,4.548739837398374,1118.99,0.00140154,1.4993
16.75961945266481,4.548983739837398,1119.05,0.0012259,1.51362
16.945797735606863,4.5495121951219515,1119.18,0.000745768,1.53297
17.13404422499819,4.549878048780488,1119.27,1.7161e-05,1.54834
17.324381896009932,4.549878048780488,1119.27,0.0,1.73244
17.5168339790385,4.549878048780488,1119.27,0.0,1.75168
17.711423962540767,4.549878048780488,1119.27,0.0,1.77114
17.908175595900808,4.549878048780488,1119.27,0.0,1.79082
18.10711289232847,4.549878048780488,1119.27,0.0,1.81071
18.308260131790135,4.549878048780488,1119.27,0.0,1.83083
18.511641863972084,4.549878048780488,1119.27,0.0,1.85116
18.71728291127668,4.549878048780488,1119.27,0.0,1.87173
18.92520837185198,4.549878048780488,1119.27,0.0,1.89252
19.135443622654865,4.549878048780488,1119.27,0.0,1.91354
19.34801432254828,4.549878048780488,1119.27,0.0,1.9348
19.562946415432855,4.549878048780488,1119.27,0.0,1.95629
19.780266133413306,4.549878048780488,1119.27,0.0,1.97803
20.000000000000004,4.549878048780488,1119.27,0.0,2.0
