freq,redchi,fitstat,norm,width
1.0471285480508996,1.4266666666666665,350.96,0.0022632,0.112719
1.0587608285836607,1.433170731707317,352.56,0.00197766,0.116291
1.070522329115862,1.438861788617886,353.96,0.00182101,0.117397
1.0824144851190958,1.4434146341463414,355.08,0.00155717,0.118639
1.0944387480112365,1.4476829268292684,356.13,0.00158295,0.119626
1.1065965853335857,1.4510975609756098,356.97,0.00119178,0.116317
1.1188894809299823,1.4542276422764229,357.74,0.000853244,0.120005
1.1313189351279025,1.4566666666666666,358.34,0.000472311,0.118847
1.1438864649215728,1.4578048780487805,358.62,0.000172304,0.124754
1.1565936041571172,1.4578861788617885,358.64,0.0,0.115659
1.1694419037197599,1.4578861788617885,358.64,0.0,0.116944
1.1824329317231081,1.4578861788617885,358.64,0.0,0.118243
1.1955682737005384,1.4578861788617885,358.64,0.0,0.119557
1.2088495327987077,1.4578861788617885,358.64,0.0,0.120885
1.2222783299732152,1.4578861788617885,358.64,0.0,0.122228
1.2358563041864368,1.4578861788617885,358.64,0.0,0.123586
1.2495851126075586,1.4578861788617885,358.64,0.0,0.124959
1.2634664308148307,1.4578861788617885,358.64,0.0,0.126347
1.2775019530000689,1.4578861788617885,358.64,0.0,0.12775
1.2916933921754286,1.4578861788617885,358.64,0.0,0.129169
1.3060424803824748,1.4578861788617885,358.64,0.0,0.130604
1.3205509689035746,1.4578861788617885,358.64,0.0,0.132055
1.3352206284756383,1.4578861788617885,358.64,0.0,0.133522
1.3500532495062354,1.4578861788617885,358.64,0.0,0.135005
1.3650506422921107,1.4578861788617885,358.64,0.0,0.136505
1.3802146372401272,1.4578861788617885,358.64,0.0,0.138021
1.3955470850906657,1.4578861788617885,358.64,0.0,0.139555
1.4110498571435033,1.4578861788617885,358.64,0.0,0.141105
1.4267248454862032,1.4578861788617885,358.64,0.0,0.142672
1.4425739632250398,1.4578861788617885,358.64,0.0,0.144257
1.4585991447184923,1.4578861788617885,358.64,0.0,0.14586
1.474802345813327,1.4578861788617885,358.64,0.0,0.14748
1.491185544083308,1.4578861788617885,358.64,0.0,0.149119
1.5077507390705542,1.4578861788617885,358.64,7.85162e-06,0.141839
1.5244999525295826,1.4578455284552845,358.63,3.28248e-05,0.137873
1.5414352286740576,1.4578861788617885,358.64,1.18382e-05,0.143947
1.5585586344262863,1.4578861788617885,358.64,0.0,0.155856
1.5758722596694812,1.4578861788617885,358.64,0.0,0.157587
1.593378217502827,1.4578861788617885,358.64,0.0,0.159338
1.6110786444993823,1.4578861788617885,358.64,0.0,0.161108
1.6289757009668435,1.4578861788617885,358.64,0.0,0.162898
1.6470715712112072,1.4578861788617885,358.64,0.0,0.164707
1.6653684638033603,1.4578861788617885,358.64,0.0,0.166537
1.6838686118486341,1.4578861788617885,358.64,0.0,0.168387
1.70257427325935,1.4578861788617885,358.64,0.0,0.170257
1.7214877310303935,1.4578861788617885,358.64,0.0,0.172149
1.7406112935178513,1.4578861788617885,358.64,0.0,0.174061
1.7599472947207409,1.4578861788617885,358.64,0.0,0.175995
1.779498094565872,1.4578861788617885,358.64,0.0,0.17795
1.7992660791958721,1.4578861788617885,358.64,0.0,0.179927
1.81925366126041,1.4578861788617885,358.64,0.0,0.181925
1.839463280210657,1.4578861788617885,358.64,0.0,0.183946
1.8598974025970172,1.4578861788617885,358.64,0.0,0.18599
1.8805585223701655,1.4578861788617885,358.64,0.0,0.188056
1.901449161185431,1.4578861788617885,358.64,0.0,0.190145
1.9225718687105604,1.4578861788617885,358.64,0.0,0.192257
1.9439292229369007,1.4578861788617885,358.64,0.0,0.194393
1.9655238304940383,1.4578861788617885,358.64,0.0,0.196552
1.9873583269679354,1.4578861788617885,358.64,0.0,0.198736
2.0094353772225966,1.4578861788617885,358.64,0.0,0.200944
2.031757675725313,1.4578861788617885,358.64,0.0,0.203176
2.0543279468755165,1.4578861788617885,358.64,0.0,0.205433
2.077148945337289,1.4578861788617885,358.64,0.0,0.207715
2.100223456375563,1.4578861788617885,358.64,0.0,0.210022
2.123554296196061,1.4578861788617885,358.64,0.0,0.212355
2.147144312289006,1.4578861788617885,358.64,0.0,0.214714
2.1709963837766555,1.4578861788617885,358.64,0.0,0.2171
2.1951134217646913,1.4578861788617885,358.64,0.0,0.219511
2.219498369697517,1.4578861788617885,358.64,0.0,0.22195
2.244154203717499,1.4578861788617885,358.64,0.0,0.224415
2.269083933028201,1.4578861788617885,358.64,0.0,0.226908
2.2942906002616517,1.4578861788617885,358.64,0.0,0.229429
2.3197772818496922,1.4578861788617885,358.64,0.0,0.231978
2.3455470883994516,1.4578861788617885,358.64,0.0,0.234555
2.371603165072989,1.4578861788617885,358.64,0.0,0.23716
2.397948691971156,1.4578861788617885,358.64,0.0,0.239795
2.424586884521724,1.4578861788617885,358.64,0.0,0.242459
2.45152099387182,1.4578861788617885,358.64,0.0,0.245152
2.478754307284725,1.4578861788617885,358.64,0.0,0.247875
2.50629014854108,1.4578861788617885,358.64,0.0,0.250629
2.5341318783445423,1.4578861788617885,358.64,0.0,0.253413
2.5622828947319634,1.4578861788617885,358.64,0.0,0.256228
2.5907466334881044,1.4578861788617885,358.64,0.0,0.259075
2.6195265685649725,1.4578861788617885,358.64,0.0,0.261953
2.648626212505812,1.4578861788617885,358.64,0.0,0.264863
2.678049116873801,1.4578861788617885,358.64,0.0,0.267805
2.7077988726855153,1.4578861788617885,358.64,0.0,0.27078
2.737879110849208,1.4578861788617885,358.64,0.0,0.273788
2.7682935026079525,1.4578861788617885,358.64,0.0,0.276829
2.7990457599877123,1.4578861788617885,358.64,0.0,0.279905
2.8301396362503914,1.4578861788617885,358.64,0.0,0.283014
2.8615789263519074,1.4578861788617885,358.64,0.0,0.286158
2.8933674674053647,1.4578861788617885,358.64,0.0,0.289337
2.9255091391493653,1.4578861788617885,358.64,0.0,0.292551
2.9580078644215257,1.4578861788617885,358.64,0.0,0.295801
2.9908676096372515,1.4578861788617885,358.64,0.0,0.299087
3.024092385273832,1.4578861788617885,358.64,0.0,0.302409
3.057686246359914,1.4578861788617885,358.64,0.0,0.305769
3.0916532929704084,1.4578861788617885,358.64,0.0,0.309165
3.1259976707269,1.4576829268292681,358.59,0.000179286,0.283838
3.1607235713036137,1.4569918699186992,358.42,0.000422766,0.285187
3.195835232938998,1.4560975609756097,358.2,0.000616674,0.287661
3.2313369409529997,1.4557317073170732,358.11,0.000675598,0.290963
3.267233028270078,1.4563821138211381,358.27,0.000418009,0.294379
3.3035278759480278,1.456910569105691,358.4,0.000408608,0.29801
3.3402259137126866,1.4573170731707317,358.5,0.000385779,0.364569
3.377331620498571,1.457479674796748,358.54,0.000378584,0.355753
3.4148495249955215,1.457520325203252,358.55,0.000393575,0.36691
3.452784206201428,1.4574390243902438,358.53,0.000428798,0.367383
3.4911402939810827,1.4572357723577236,358.48,0.00048062,0.376417
3.52992246963125,1.4569918699186992,358.42,0.000543579,0.382418
3.5691354664520105,1.4567479674796748,358.36,0.000614901,0.379146
3.608784070324455,1.4564634146341464,358.29,0.00072972,0.392393
3.6488731202947875,1.4560975609756097,358.2,0.000824325,0.40059
3.6894075091649277,1.455650406504065,358.09,0.000873635,0.389867
3.73039218408967,1.4550813008130081,357.95,0.000914629,0.360018
3.771832147180468,1.4544715447154473,357.8,0.000923701,0.341108
3.8137324561159454,1.4542276422764229,357.74,0.000940919,0.347508
3.856098224759168,1.454390243902439,357.78,0.000978758,0.368757
3.898934623781784,1.4545121951219513,357.81,0.00107121,0.427083
3.9422468812951004,1.4545528455284553,357.82,0.00113179,0.433448
3.9860402834881605,1.4544715447154473,357.8,0.00113011,0.437285
4.030320175272916,1.4541463414634148,357.72,0.00125626,0.440391
4.075091960936564,1.4534959349593497,357.56,0.00125624,0.446249
4.120361104801134,1.4524796747967479,357.31,0.00122317,0.377602
4.166133131890395,1.4513821138211382,357.04,0.00115308,0.382735
4.21241362860418,1.4507317073170731,356.88,0.00124712,0.379152
4.259208243400194,1.4518292682926828,357.15,0.00115099,0.383436
4.3065226874833975,1.4541056910569106,357.71,0.000957303,0.388712
4.354362735503053,1.456260162601626,358.24,0.00076035,0.445421
4.402734226257512,1.4573170731707317,358.5,0.000522304,0.477531
4.451643063406824,1.4577642276422764,358.61,0.00029351,0.479113
4.501095216193276,1.4578861788617885,358.64,3.10316e-05,0.482304
4.551096720169926,1.4578861788617885,358.64,0.0,0.45511
4.601653677937228,1.4578861788617885,358.64,0.0,0.460165
4.652772259887852,1.4578861788617885,358.64,0.0,0.465277
4.704458704959767,1.4578861788617885,358.64,0.0,0.470446
4.756719321397685,1.4578861788617885,358.64,0.0,0.475672
4.809560487522986,1.4578861788617885,358.64,0.0,0.480956
4.862988652512174,1.4578861788617885,358.64,0.0,0.486299
4.917010337183984,1.4578861788617885,358.64,0.0,0.491701
4.971632134795246,1.4578861788617885,358.64,0.0,0.497163
5.026860711845576,1.4578861788617885,358.64,0.0,0.502686
5.082702808891011,1.4578861788617885,358.64,0.0,0.50827
5.139165241366684,1.4578861788617885,358.64,0.0,0.513917
5.196254900418639,1.4578861788617885,358.64,2.48609e-05,0.477949
5.2539787537448746,1.4578455284552845,358.63,5.38246e-05,0.485397
5.312343846445754,1.4578455284552845,358.63,9.12794e-05,0.480217
5.371357301883837,1.4578861788617885,358.64,2.25221e-05,0.497367
5.431026322553275,1.4578861788617885,358.64,0.0,0.543103
5.491358190958871,1.4578861788617885,358.64,0.0,0.549136
5.5523602705048924,1.4578861788617885,358.64,0.0,0.555236
5.614040006393758,1.4578861788617885,358.64,0.0,0.561404
5.676404926534721,1.4578048780487805,358.62,0.000155259,0.596247
5.739462642462633,1.4574390243902438,358.53,0.000484858,0.609412
5.803220850266918,1.4567073170731708,358.35,0.000616608,0.541293
5.867687331530871,1.455569105691057,358.07,0.000833157,0.530337
5.932869954281387,1.4545528455284553,357.82,0.000911053,0.536057
5.9987766739492345,1.45369918699187,357.61,0.00112937,0.539926
6.065415534340013,1.4534959349593497,357.56,0.00119357,0.54803
6.132794668615875,1.4537804878048781,357.63,0.00120392,0.553056
6.200922300288177,1.454390243902439,357.78,0.00112098,0.561896
6.26980674422113,1.4551219512195122,357.96,0.00104467,0.566596
6.33945640764663,1.4559349593495936,358.16,0.00105142,0.673333
6.409879791190342,1.4565447154471545,358.31,0.000920092,0.703061
6.481085489909176,1.4569512195121952,358.41,0.000746946,0.712579
6.553082194340318,1.4571951219512196,358.47,0.000667242,0.71995
6.625878691561884,1.4573170731707317,358.5,0.000606937,0.71792
6.699483866265369,1.4573170731707317,358.5,0.000555895,0.712259
6.773906701840011,1.4573577235772357,358.51,0.000526518,0.726187
6.849156281469203,1.457479674796748,358.54,0.000434223,0.653654
6.925241789239067,1.45760162601626,358.57,0.000390701,0.737747
7.0021725112593725,1.4577642276422764,358.61,0.000343401,0.735427
7.079957836796883,1.4578048780487805,358.62,0.00030415,0.772144
7.158607259421295,1.4578048780487805,358.62,0.000159013,0.761477
7.238130378163925,1.4578048780487805,358.62,0.000263182,0.770419
7.318536898689247,1.4577642276422764,358.61,0.000255294,0.798638
7.399836634479451,1.4577642276422764,358.61,0.000241937,0.688578
7.482039508032168,1.4577235772357724,358.6,0.000204052,0.697264
7.565155552071494,1.4577642276422764,358.61,0.000214459,0.699929
7.649194910772461,1.4578455284552845,358.63,9.07582e-05,0.719745
7.734167840999122,1.4578861788617885,358.64,0.0,0.773417
7.820084713556388,1.4578861788617885,358.64,0.0,0.782008
7.906956014455753,1.4578861788617885,358.64,0.0,0.790696
7.994792346195112,1.4578861788617885,358.64,0.0,0.799479
8.083604429052771,1.4578861788617885,358.64,0.0,0.80836
8.173403102395827,1.4578861788617885,358.64,0.0,0.81734
8.264199326003121,1.4578861788617885,358.64,0.0,0.82642
8.356004181402835,1.4578861788617885,358.64,9.30975e-05,0.90719
8.448828873224988,1.4578048780487805,358.62,0.0001834,0.794456
8.542684730568942,1.4577235772357724,358.6,0.000269966,0.783032
8.637583208386094,1.4576829268292681,358.59,0.000289889,0.791582
8.733535888877936,1.4576422764227641,358.58,0.000357749,0.943878
8.830554482909648,1.4576829268292681,358.59,0.000374192,0.928848
8.928650831439386,1.4577235772357724,358.6,0.000395511,0.955088
9.027836906963444,1.4577642276422764,358.61,0.000230962,0.985098
9.128124814977493,1.4577235772357724,358.6,0.00024087,1.00204
9.229526795454028,1.45760162601626,358.57,0.000322986,1.00816
9.332055224336228,1.4573983739837397,358.52,0.000721946,1.02402
9.435722615048434,1.456910569105691,358.4,0.000927544,1.03619
9.54054162002339,1.456260162601626,358.24,0.00116448,1.04823
9.646525032246434,1.4554065040650406,358.03,0.00142911,1.05347
9.753685786816883,1.454308943089431,357.76,0.0017133,1.06973
9.862036962526732,1.4527642276422763,357.38,0.00203674,1.08451
9.971591783456889,1.4505691056910568,356.84,0.00238535,1.09687
10.082363620591163,1.4476016260162603,356.11,0.00275013,1.10649
10.194365993448185,1.4439837398373985,355.22,0.003194,1.11069
10.307612571731394,1.440121951219512,354.27,0.00343183,1.03685
10.422117176997459,1.43630081300813,353.33,0.00345592,0.988484
10.537893784343142,1.433211382113821,352.57,0.00351154,0.954226
10.654956524110943,1.4307723577235774,351.97,0.00408548,0.96194
10.7733196836137,1.4302845528455286,351.85,0.004075,0.969734
10.892997708878294,1.431991869918699,352.27,0.00390469,0.987173
11.014005206408806,1.4356097560975611,353.16,0.00385658,0.992269
11.13635694496919,1.4409756097560977,354.48,0.0033395,1.00233
11.260067857385788,1.4454878048780486,355.59,0.00325496,1.23782
11.38515304236985,1.4491463414634147,356.49,0.00275286,1.24667
11.511627766360313,1.4517073170731707,357.12,0.00241406,1.26628
11.639507465387025,1.4533739837398374,357.53,0.00209949,1.27693
11.768807746954717,1.4545121951219513,357.81,0.00182463,1.29279
11.899544391947854,1.4554471544715448,358.04,0.0015697,1.30754
12.031733356556671,1.456219512195122,358.23,0.00133416,1.32326
12.165390774224598,1.4568292682926829,358.38,0.00111305,1.33684
12.300532957617323,1.4572764227642276,358.49,0.000932289,1.35122
12.437176400613707,1.457520325203252,358.55,0.000473273,1.35329
12.575337780318868,1.4577642276422764,358.61,0.00063828,1.35829
12.715033959099575,1.4578048780487805,358.62,0.000172541,1.33944
12.856281986642266,1.4578455284552845,358.63,6.54334e-05,1.35017
12.999099102033945,1.4578455284552845,358.63,5.42583e-05,1.39927
13.143502735866187,1.4577235772357724,358.6,0.000234728,1.43055
13.289510512362487,1.4572764227642276,358.49,0.000604917,1.45737
13.4371402515293,1.456219512195122,358.23,0.00139296,1.47465
13.58640997133093,1.454390243902439,357.78,0.0018111,1.48841
13.73733788988859,1.451951219512195,357.18,0.00209245,1.24137
13.88994242770389,1.4493089430894308,356.53,0.00259022,1.2535
14.044242209907045,1.4476422764227643,356.12,0.00270127,1.28016
14.200256068530011,1.4464227642276422,355.82,0.00340542,1.45524
14.35800304480494,1.4454878048780486,355.59,0.00380298,1.51223
14.517502391488105,1.4445121951219513,355.35,0.00392638,1.58113
14.678773575209679,1.4436178861788618,355.13,0.00344414,1.34747
14.841836278849597,1.443089430894309,355.0,0.00334829,1.3358
15.00671040393983,1.443739837398374,355.16,0.00346528,1.35329
15.173416073093307,1.445731707317073,355.65,0.00323131,1.37033
15.341973632459885,1.448048780487805,356.22,0.00350541,1.63039
15.512403654209539,1.449918699186992,356.68,0.00312323,1.7049
15.684726939043165,1.4515447154471544,357.08,0.00289404,1.72313
15.858964518731268,1.4528048780487803,357.39,0.0026559,1.70925
16.03513765868087,1.4536178861788618,357.59,0.00226207,1.75512
16.213267860530888,1.454349593495935,357.77,0.00222991,1.75838
16.393376864776396,1.454959349593496,357.92,0.00167037,1.48194
16.57548665342203,1.4556910569105692,358.1,0.00125115,1.49588
16.75961945266481,1.4566260162601625,358.33,0.00093013,1.50859
16.945797735606863,1.45760162601626,358.57,0.000443386,1.60924
17.13404422499819,1.4578861788617885,358.64,0.0,1.7134
17.324381896009932,1.4578861788617885,358.64,0.0,1.73244
17.5168339790385,1.4578861788617885,358.64,0.0,1.75168
17.711423962540767,1.4578861788617885,358.64,0.0,1.77114
17.908175595900808,1.4578861788617885,358.64,0.0,1.79082
18.10711289232847,1.4578861788617885,358.64,0.0,1.81071
18.308260131790135,1.4578861788617885,358.64,0.0,1.83083
18.511641863972084,1.4578861788617885,358.64,0.0,1.85116
18.71728291127668,1.4578861788617885,358.64,0.0,1.87173
18.92520837185198,1.4578861788617885,358.64,0.0,1.89252
19.135443622654865,1.4578861788617885,358.64,0.0,1.91354
19.34801432254828,1.4578861788617885,358.64,0.0,1.9348
19.562946415432855,1.4578861788617885,358.64,0.0,1.95629
19.780266133413306,1.4578861788617885,358.64,0.0,1.97803
20.000000000000004,1.4578455284552845,358.63,0.00015687,1.84515
